time,ECG
0.001,0.081
0.002,0.083
0.003,0.088
0.004,0.098
0.005,0.092
0.006,0.085
0.007,0.073
0.008,0.071
0.009,0.07
0.01,0.083
0.011,0.073
0.012,0.079
0.013,0.084
0.014,0.078
0.015,0.067
0.016,0.071
0.017,0.076
0.018,0.077
0.019,0.064
0.02,0.053
0.021,0.041
0.022,0.051
0.023,0.003
0.024,0.031
0.025,0.037
0.026,0.035
0.027,0.048
0.028,0.04
0.029,0.042
0.03,0.042
0.031,0.032
0.032,0.021
0.033,0.041
0.034,0.048
0.035,0.047
0.036,0.045
0.037,0.042
0.038,0.028
0.039,0.015
0.04,0.001
0.041,-0.012
0.042,-0.004
0.043,0.015
0.044,0.023
0.045,0.022
0.046,0.04
0.047,0.046
0.048,0.049
0.049,0.048
0.05,0.043
0.051,0.052
0.052,0.049
0.053,0.044
0.054,0.041
0.055,0.041
0.056,0.045
0.057,0.057
0.058,0.067
0.059,0.065
0.06,0.058
0.061,0.047
0.062,0.034
0.063,0.035
0.064,0.023
0.065,0.011
0.066,0.007
0.067,0.014
0.068,0.023
0.069,0.018
0.07,0.031
0.071,0.035
0.072,0.044
0.073,0.049
0.074,0.034
0.075,0.007
0.076,-0.003
0.077,-0.008
0.078,-0.011
0.079,-0.02
0.08,-0.028
0.081,-0.004
0.082,0.015
0.083,0.02
0.084,0.026
0.085,0.026
0.086,0.024
0.087,0.034
0.088,0.035
0.089,0.03
0.09,0.022
0.091,0.012
0.092,0.015
0.093,0.018
0.094,0.024
0.095,0.018
0.096,0.026
0.097,0.025
0.098,0.013
0.099,0.002
0.1,0.001
0.101,-0.01
0.102,-0.01
0.103,-0.004
0.104,0.008
0.105,0.015
0.106,0.015
0.107,0.015
0.108,0.015
0.109,0.018
0.11,0.019
0.111,0.003
0.112,-0.012
0.113,-0.014
0.114,-0.01
0.115,-0.022
0.116,-0.024
0.117,-0.029
0.118,-0.021
0.119,-0.019
0.12,-0.026
0.121,-0.009
0.122,-0.01
0.123,-0.006
0.124,-0.008
0.125,-0.031
0.126,-0.052
0.127,-0.057
0.128,-0.04
0.129,-0.02
0.13,0.007
0.131,0.014
0.132,0.01
0.133,0.006
0.134,0.012
0.135,-0.005
0.136,-0.002
0.137,0.009
0.138,0.023
0.139,0.036
0.14,0.052
0.141,0.061
0.142,0.056
0.143,0.048
0.144,0.048
0.145,0.038
0.146,0.029
0.147,0.033
0.148,0.02
0.149,0.001
0.15,-0.007
0.151,-0.009
0.152,-0.004
0.153,-0.012
0.154,-0.003
0.155,0.005
0.156,-0.003
0.157,0.012
0.158,0.006
0.159,-0.01
0.16,-0.002
0.161,0.015
0.162,0.017
0.163,0.021
0.164,0.022
0.165,0.015
0.166,0.016
0.167,0.001
0.168,-0.002
0.169,-0.009
0.17,-0.016
0.171,-0.018
0.172,-0.015
0.173,-0.004
0.174,0
0.175,-0.001
0.176,-0.001
0.177,-0.003
0.178,-0.012
0.179,-0.015
0.18,-0.013
0.181,-0.016
0.182,-0.029
0.183,-0.034
0.184,-0.028
0.185,-0.029
0.186,-0.027
0.187,-0.025
0.188,-0.025
0.189,-0.033
0.19,-0.038
0.191,-0.036
0.192,-0.012
0.193,-0.007
0.194,-0.02
0.195,-0.021
0.196,-0.014
0.197,-0.007
0.198,0.007
0.199,0.014
0.2,0.018
0.201,0.028
0.202,0.027
0.203,0.038
0.204,0.033
0.205,0.024
0.206,0.02
0.207,0.015
0.208,0.006
0.209,0
0.21,-0.002
0.211,0.002
0.212,0
0.213,-0.002
0.214,-0.012
0.215,-0.01
0.216,0.02
0.217,0.041
0.218,0.035
0.219,0.027
0.22,0.012
0.221,-0.001
0.222,-0.015
0.223,-0.02
0.224,-0.023
0.225,0
0.226,0.024
0.227,0.036
0.228,0.052
0.229,0.061
0.23,0.067
0.231,0.073
0.232,0.088
0.233,0.085
0.234,0.071
0.235,0.074
0.236,0.067
0.237,0.041
0.238,0.026
0.239,0.013
0.24,0.01
0.241,0.001
0.242,-0.01
0.243,-0.026
0.244,-0.033
0.245,-0.023
0.246,-0.025
0.247,-0.024
0.248,-0.024
0.249,-0.028
0.25,-0.024
0.251,-0.025
0.252,-0.021
0.253,-0.008
0.254,-0.005
0.255,-0.004
0.256,-0.013
0.257,-0.029
0.258,-0.042
0.259,-0.052
0.26,-0.052
0.261,-0.04
0.262,-0.04
0.263,-0.034
0.264,-0.028
0.265,-0.03
0.266,-0.037
0.267,-0.04
0.268,-0.038
0.269,-0.041
0.27,-0.039
0.271,-0.046
0.272,-0.048
0.273,-0.048
0.274,-0.04
0.275,-0.04
0.276,-0.045
0.277,-0.057
0.278,-0.061
0.279,-0.063
0.28,-0.078
0.281,-0.081
0.282,-0.087
0.283,-0.082
0.284,-0.088
0.285,-0.1
0.286,-0.1
0.287,-0.097
0.288,-0.104
0.289,-0.102
0.29,-0.079
0.291,-0.072
0.292,-0.072
0.293,-0.063
0.294,-0.035
0.295,-0.022
0.296,-0.01
0.297,0.002
0.298,0.005
0.299,0.009
0.3,-0.01
0.301,-0.016
0.302,-0.016
0.303,-0.01
0.304,-0.004
0.305,-0.001
0.306,0.002
0.307,0.014
0.308,0.021
0.309,0.023
0.31,0.017
0.311,0.013
0.312,0.01
0.313,0
0.314,-0.006
0.315,-0.005
0.316,0.011
0.317,0.022
0.318,0.028
0.319,0.031
0.32,0.033
0.321,0.029
0.322,0.026
0.323,0.027
0.324,0.028
0.325,0.026
0.326,0.035
0.327,0.044
0.328,0.052
0.329,0.08
0.33,0.1
0.331,0.101
0.332,0.111
0.333,0.12
0.334,0.128
0.335,0.15
0.336,0.174
0.337,0.201
0.338,0.232
0.339,0.278
0.34,0.35
0.341,0.422
0.342,0.51
0.343,0.58
0.344,0.662
0.345,0.738
0.346,0.806
0.347,0.869
0.348,0.907
0.349,0.939
0.35,0.954
0.351,0.971
0.352,0.961
0.353,0.912
0.354,0.826
0.355,0.713
0.356,0.553
0.357,0.382
0.358,0.166
0.359,-0.056
0.36,-0.275
0.361,-0.518
0.362,-0.824
0.363,-1.122
0.364,-1.325
0.365,-1.453
0.366,-1.507
0.367,-1.547
0.368,-1.568
0.369,-1.559
0.37,-1.553
0.371,-1.537
0.372,-1.499
0.373,-1.447
0.374,-1.424
0.375,-1.398
0.376,-1.352
0.377,-1.291
0.378,-1.189
0.379,-1.085
0.38,-0.977
0.381,-0.852
0.382,-0.736
0.383,-0.649
0.384,-0.576
0.385,-0.454
0.386,-0.443
0.387,-0.332
0.388,-0.264
0.389,-0.209
0.39,-0.153
0.391,-0.105
0.392,-0.061
0.393,-0.016
0.394,0.037
0.395,0.096
0.396,0.15
0.397,0.198
0.398,0.238
0.399,0.265
0.4,0.294
0.401,0.324
0.402,0.351
0.403,0.367
0.404,0.376
0.405,0.378
0.406,0.391
0.407,0.406
0.408,0.427
0.409,0.433
0.41,0.448
0.411,0.44
0.412,0.429
0.413,0.429
0.414,0.42
0.415,0.413
0.416,0.42
0.417,0.411
0.418,0.408
0.419,0.404
0.42,0.398
0.421,0.401
0.422,0.412
0.423,0.389
0.424,0.367
0.425,0.357
0.426,0.359
0.427,0.351
0.428,0.345
0.429,0.341
0.43,0.345
0.431,0.346
0.432,0.34
0.433,0.334
0.434,0.323
0.435,0.319
0.436,0.314
0.437,0.284
0.438,0.263
0.439,0.261
0.44,0.248
0.441,0.234
0.442,0.236
0.443,0.236
0.444,0.248
0.445,0.252
0.446,0.251
0.447,0.237
0.448,0.23
0.449,0.238
0.45,0.227
0.451,0.207
0.452,0.188
0.453,0.163
0.454,0.155
0.455,0.152
0.456,0.153
0.457,0.156
0.458,0.171
0.459,0.162
0.46,0.155
0.461,0.148
0.462,0.139
0.463,0.154
0.464,0.158
0.465,0.155
0.466,0.159
0.467,0.147
0.468,0.143
0.469,0.133
0.47,0.118
0.471,0.118
0.472,0.121
0.473,0.13
0.474,0.133
0.475,0.133
0.476,0.128
0.477,0.12
0.478,0.097
0.479,0.091
0.48,0.088
0.481,0.085
0.482,0.084
0.483,0.074
0.484,0.044
0.485,0.032
0.486,0.01
0.487,-0.002
0.488,-0.009
0.489,-0.004
0.49,-0.005
0.491,0.001
0.492,0.005
0.493,0.021
0.494,0.041
0.495,0.044
0.496,0.039
0.497,0.024
0.498,0.022
0.499,0.037
0.5,0.044
0.501,0.035
0.502,0.031
0.503,0.035
0.504,0.02
0.505,0.015
0.506,0.007
0.507,0.004
0.508,0.009
0.509,0
0.51,-0.015
0.511,-0.021
0.512,-0.031
0.513,-0.032
0.514,-0.048
0.515,-0.053
0.516,-0.029
0.517,-0.014
0.518,-0.006
0.519,0.001
0.52,0.004
0.521,-0.004
0.522,-0.003
0.523,0.002
0.524,0.001
0.525,-0.012
0.526,-0.037
0.527,-0.029
0.528,-0.025
0.529,-0.018
0.53,-0.031
0.531,-0.042
0.532,-0.026
0.533,-0.022
0.534,-0.018
0.535,-0.025
0.536,-0.016
0.537,-0.013
0.538,-0.023
0.539,-0.015
0.54,0
0.541,0.008
0.542,0.014
0.543,0.034
0.544,0.039
0.545,0.033
0.546,0.022
0.547,0.018
0.548,0.02
0.549,0.023
0.55,0.016
0.551,0.011
0.552,0.001
0.553,0.006
0.554,0.011
0.555,0.007
0.556,0.014
0.557,0.022
0.558,0.014
0.559,0.014
0.56,0.005
0.561,-0.006
0.562,-0.014
0.563,-0.027
0.564,-0.028
0.565,-0.021
0.566,-0.016
0.567,-0.008
0.568,-0.005
0.569,-0.008
0.57,0.003
0.571,0.022
0.572,0.029
0.573,0.027
0.574,0.023
0.575,0.022
0.576,0.025
0.577,0.034
0.578,0.036
0.579,0.039
0.58,0.044
0.581,0.055
0.582,0.054
0.583,0.044
0.584,0.039
0.585,0.041
0.586,0.049
0.587,0.044
0.588,0.033
0.589,0.027
0.59,0.023
0.591,0.02
0.592,0.018
0.593,0.02
0.594,0.019
0.595,0.008
0.596,0.007
0.597,0.002
0.598,0.004
0.599,-0.003
0.6,-0.016
0.601,-0.016
0.602,-0.019
0.603,-0.028
0.604,-0.037
0.605,-0.026
0.606,-0.014
0.607,-0.031
0.608,-0.045
0.609,-0.045
0.61,-0.043
0.611,-0.05
0.612,-0.059
0.613,-0.073
0.614,-0.079
0.615,-0.088
0.616,-0.092
0.617,-0.095
0.618,-0.101
0.619,-0.104
0.62,-0.124
0.621,-0.15
0.622,-0.152
0.623,-0.153
0.624,-0.174
0.625,-0.205
0.626,-0.215
0.627,-0.211
0.628,-0.214
0.629,-0.211
0.63,-0.222
0.631,-0.218
0.632,-0.211
0.633,-0.2
0.634,-0.2
0.635,-0.196
0.636,-0.184
0.637,-0.189
0.638,-0.202
0.639,-0.203
0.64,-0.202
0.641,-0.2
0.642,-0.205
0.643,-0.211
0.644,-0.226
0.645,-0.241
0.646,-0.242
0.647,-0.252
0.648,-0.273
0.649,-0.279
0.65,-0.288
0.651,-0.291
0.652,-0.289
0.653,-0.286
0.654,-0.269
0.655,-0.266
0.656,-0.28
0.657,-0.287
0.658,-0.277
0.659,-0.26
0.66,-0.271
0.661,-0.269
0.662,-0.271
0.663,-0.287
0.664,-0.299
0.665,-0.297
0.666,-0.288
0.667,-0.287
0.668,-0.287
0.669,-0.289
0.67,-0.287
0.671,-0.286
0.672,-0.276
0.673,-0.271
0.674,-0.266
0.675,-0.26
0.676,-0.252
0.677,-0.236
0.678,-0.223
0.679,-0.215
0.68,-0.213
0.681,-0.224
0.682,-0.23
0.683,-0.22
0.684,-0.209
0.685,-0.207
0.686,-0.194
0.687,-0.182
0.688,-0.181
0.689,-0.186
0.69,-0.189
0.691,-0.186
0.692,-0.174
0.693,-0.167
0.694,-0.161
0.695,-0.158
0.696,-0.155
0.697,-0.153
0.698,-0.139
0.699,-0.135
0.7,-0.13
0.701,-0.129
0.702,-0.116
0.703,-0.107
0.704,-0.098
0.705,-0.084
0.706,-0.085
0.707,-0.092
0.708,-0.1
0.709,-0.105
0.71,-0.097
0.711,-0.081
0.712,-0.072
0.713,-0.058
0.714,-0.049
0.715,-0.035
0.716,-0.033
0.717,-0.028
0.718,-0.013
0.719,-0.007
0.72,-0.009
0.721,-0.006
0.722,0.01
0.723,0.022
0.724,0.016
0.725,0.005
0.726,-0.012
0.727,-0.012
0.728,0.001
0.729,0.006
0.73,0.017
0.731,0.041
0.732,0.052
0.733,0.054
0.734,0.057
0.735,0.063
0.736,0.081
0.737,0.096
0.738,0.107
0.739,0.118
0.74,0.133
0.741,0.123
0.742,0.121
0.743,0.129
0.744,0.128
0.745,0.127
0.746,0.112
0.747,0.089
0.748,0.123
0.749,0.042
0.75,0.098
0.751,0.109
0.752,0.109
0.753,0.108
0.754,0.113
0.755,0.121
0.756,0.119
0.757,0.119
0.758,0.114
0.759,0.112
0.76,0.109
0.761,0.107
0.762,0.105
0.763,0.114
0.764,0.122
0.765,0.13
0.766,0.134
0.767,0.121
0.768,0.113
0.769,0.1
0.77,0.094
0.771,0.114
0.772,0.112
0.773,0.108
0.774,0.116
0.775,0.114
0.776,0.112
0.777,0.118
0.778,0.119
0.779,0.116
0.78,0.109
0.781,0.11
0.782,0.108
0.783,0.113
0.784,0.116
0.785,0.118
0.786,0.107
0.787,0.103
0.788,0.109
0.789,0.11
0.79,0.103
0.791,0.106
0.792,0.104
0.793,0.093
0.794,0.086
0.795,0.077
0.796,0.083
0.797,0.087
0.798,0.08
0.799,0.095
0.8,0.1
0.801,0.088
0.802,0.102
0.803,0.087
0.804,0.077
0.805,0.088
0.806,0.081
0.807,0.071
0.808,0.059
0.809,0.061
0.81,0.067
0.811,0.076
0.812,0.091
0.813,0.094
0.814,0.093
0.815,0.089
0.816,0.094
0.817,0.098
0.818,0.103
0.819,0.095
0.82,0.083
0.821,0.089
0.822,0.088
0.823,0.096
0.824,0.097
0.825,0.097
0.826,0.092
0.827,0.088
0.828,0.086
0.829,0.084
0.83,0.084
0.831,0.076
0.832,0.065
0.833,0.052
0.834,0.045
0.835,0.047
0.836,0.036
0.837,0.033
0.838,0.046
0.839,0.046
0.84,0.057
0.841,0.053
0.842,0.052
0.843,0.056
0.844,0.061
0.845,0.064
0.846,0.065
0.847,0.059
0.848,0.055
0.849,0.06
0.85,0.059
0.851,0.061
0.852,0.055
0.853,0.051
0.854,0.048
0.855,0.046
0.856,0.049
0.857,0.047
0.858,0.046
0.859,0.044
0.86,0.043
0.861,0.046
0.862,0.047
0.863,0.045
0.864,0.028
0.865,0.017
0.866,0.02
0.867,0.024
0.868,0.022
0.869,0.038
0.87,0.029
0.871,0.023
0.872,0.023
0.873,0.009
0.874,0.001
0.875,0.015
0.876,0.032
0.877,0.038
0.878,0.037
0.879,0.038
0.88,0.031
0.881,0.018
0.882,0.011
0.883,0.005
0.884,0.005
0.885,-0.001
0.886,-0.006
0.887,-0.008
0.888,-0.006
0.889,0.005
0.89,0.014
0.891,0.008
0.892,0.021
0.893,0.035
0.894,0.035
0.895,0.032
0.896,0.026
0.897,0.028
0.898,0.026
0.899,0.024
0.9,0.023
0.901,0.028
0.902,0.026
0.903,0.027
0.904,0.023
0.905,0.032
0.906,0.03
0.907,0.019
0.908,0.016
0.909,0.025
0.91,0.032
0.911,0.02
0.912,0.012
0.913,0.008
0.914,0.007
0.915,0.014
0.916,0.014
0.917,0.011
0.918,0.015
0.919,0.004
0.92,-0.005
0.921,-0.003
0.922,-0.003
0.923,-0.011
0.924,-0.002
0.925,0.018
0.926,0.011
0.927,-0.002
0.928,0.001
0.929,-0.009
0.93,-0.021
0.931,-0.013
0.932,-0.016
0.933,-0.004
0.934,0.015
0.935,0.031
0.936,0.055
0.937,0.052
0.938,0.035
0.939,0.023
0.94,0.024
0.941,0.02
0.942,0.019
0.943,0.018
0.944,0.013
0.945,0.006
0.946,0.007
0.947,0.012
0.948,0.012
0.949,0.003
0.95,0.002
0.951,-0.004
0.952,-0.011
0.953,-0.012
0.954,-0.009
0.955,-0.017
0.956,-0.006
0.957,0.001
0.958,-0.002
0.959,-0.006
0.96,-0.018
0.961,-0.017
0.962,-0.014
0.963,-0.013
0.964,-0.011
0.965,0.009
0.966,0.009
0.967,0.002
0.968,-0.002
0.969,-0.014
0.97,-0.027
0.971,-0.024
0.972,-0.016
0.973,-0.01
0.974,-0.003
0.975,0.002
0.976,0.007
0.977,0.016
0.978,0.029
0.979,0.04
0.98,0.047
0.981,0.046
0.982,0.03
0.983,0.019
0.984,0.02
0.985,0.021
0.986,0.022
0.987,0.012
0.988,0
0.989,-0.006
0.99,-0.006
0.991,-0.011
0.992,-0.009
0.993,-0.005
0.994,-0.009
0.995,-0.015
0.996,-0.018
0.997,-0.021
0.998,-0.019
0.999,-0.027
1,-0.031
1.001,-0.032
1.002,-0.035
1.003,-0.031
1.004,-0.026
1.005,-0.026
1.006,-0.019
1.007,-0.006
1.008,0
1.009,-0.003
1.01,-0.016
1.011,-0.016
1.012,-0.003
1.013,0.005
1.014,0.013
1.015,0.006
1.016,0.009
1.017,0.018
1.018,0.04
1.019,0.054
1.02,0.064
1.021,0.068
1.022,0.057
1.023,0.047
1.024,0.041
1.025,0.041
1.026,0.05
1.027,0.054
1.028,0.035
1.029,0.033
1.03,0.033
1.031,0.027
1.032,0.026
1.033,0.019
1.034,0.016
1.035,0.028
1.036,0.044
1.037,0.038
1.038,0.042
1.039,0.057
1.04,0.061
1.041,0.065
1.042,0.055
1.043,0.045
1.044,0.033
1.045,0.021
1.046,0.011
1.047,0.005
1.048,-0.014
1.049,-0.03
1.05,-0.035
1.051,-0.031
1.052,-0.032
1.053,-0.033
1.054,-0.025
1.055,-0.019
1.056,-0.018
1.057,-0.03
1.058,-0.042
1.059,-0.038
1.06,-0.044
1.061,-0.049
1.062,-0.043
1.063,-0.041
1.064,-0.03
1.065,-0.026
1.066,-0.029
1.067,-0.033
1.068,-0.053
1.069,-0.058
1.07,-0.058
1.071,-0.045
1.072,-0.037
1.073,-0.039
1.074,-0.051
1.075,-0.05
1.076,-0.052
1.077,-0.053
1.078,-0.036
1.079,-0.027
1.08,-0.029
1.081,-0.024
1.082,-0.027
1.083,-0.034
1.084,-0.046
1.085,-0.049
1.086,-0.042
1.087,-0.05
1.088,-0.049
1.089,-0.05
1.09,-0.042
1.091,-0.035
1.092,-0.024
1.093,-0.033
1.094,-0.04
1.095,-0.036
1.096,-0.037
1.097,-0.038
1.098,-0.051
1.099,-0.061
1.1,-0.067
1.101,-0.075
1.102,-0.081
1.103,-0.07
1.104,-0.066
1.105,-0.071
1.106,-0.072
1.107,-0.057
1.108,-0.048
1.109,-0.04
1.11,-0.031
1.111,0.031
1.112,-0.063
1.113,-0.016
1.114,-0.022
1.115,-0.03
1.116,-0.036
1.117,-0.037
1.118,-0.042
1.119,-0.04
1.12,-0.047
1.121,-0.038
1.122,-0.005
1.123,0.002
1.124,-0.009
1.125,-0.002
1.126,0.007
1.127,0.011
1.128,0.012
1.129,0.022
1.13,0.026
1.131,0.029
1.132,0.021
1.133,0.025
1.134,0.032
1.135,0.035
1.136,0.036
1.137,0.048
1.138,0.074
1.139,0.079
1.14,0.078
1.141,0.092
1.142,0.108
1.143,0.12
1.144,0.143
1.145,0.172
1.146,0.201
1.147,0.232
1.148,0.285
1.149,0.363
1.15,0.447
1.151,0.514
1.152,0.573
1.153,0.663
1.154,0.754
1.155,0.815
1.156,0.859
1.157,0.895
1.158,0.94
1.159,0.977
1.16,0.972
1.161,0.945
1.162,0.898
1.163,0.808
1.164,0.686
1.165,0.532
1.166,0.36
1.167,0.167
1.168,-0.033
1.169,-0.232
1.17,-0.472
1.171,-0.766
1.172,-1.082
1.173,-1.295
1.174,-1.438
1.175,-1.509
1.176,-1.567
1.177,-1.594
1.178,-1.583
1.179,-1.569
1.18,-1.547
1.181,-1.504
1.182,-1.457
1.183,-1.432
1.184,-1.403
1.185,-1.335
1.186,-1.249
1.187,-1.157
1.188,-1.058
1.189,-0.957
1.19,-0.835
1.191,-0.733
1.192,-0.65
1.193,-0.567
1.194,-0.508
1.195,-0.446
1.196,-0.378
1.197,-0.304
1.198,-0.24
1.199,-0.18
1.2,-0.123
1.201,-0.063
1.202,-0.011
1.203,0.046
1.204,0.112
1.205,0.181
1.206,0.221
1.207,0.256
1.208,0.283
1.209,0.318
1.21,0.348
1.211,0.371
1.212,0.397
1.213,0.41
1.214,0.409
1.215,0.424
1.216,0.44
1.217,0.443
1.218,0.429
1.219,0.42
1.22,0.424
1.221,0.429
1.222,0.415
1.223,0.394
1.224,0.391
1.225,0.402
1.226,0.41
1.227,0.41
1.228,0.408
1.229,0.408
1.23,0.405
1.231,0.399
1.232,0.392
1.233,0.383
1.234,0.376
1.235,0.375
1.236,0.368
1.237,0.366
1.238,0.363
1.239,0.353
1.24,0.345
1.241,0.334
1.242,0.326
1.243,0.317
1.244,0.313
1.245,0.32
1.246,0.318
1.247,0.3
1.248,0.275
1.249,0.262
1.25,0.252
1.251,0.239
1.252,0.236
1.253,0.231
1.254,0.236
1.255,0.24
1.256,0.235
1.257,0.222
1.258,0.22
1.259,0.223
1.26,0.228
1.261,0.222
1.262,0.205
1.263,0.197
1.264,0.191
1.265,0.18
1.266,0.185
1.267,0.174
1.268,0.17
1.269,0.166
1.27,0.161
1.271,0.151
1.272,0.148
1.273,0.142
1.274,0.136
1.275,0.131
1.276,0.127
1.277,0.118
1.278,0.111
1.279,0.114
1.28,0.11
1.281,0.097
1.282,0.085
1.283,0.072
1.284,0.065
1.285,0.061
1.286,0.062
1.287,0.064
1.288,0.061
1.289,0.059
1.29,0.056
1.291,0.064
1.292,0.055
1.293,0.056
1.294,0.073
1.295,0.063
1.296,0.056
1.297,0.054
1.298,0.035
1.299,0.012
1.3,-0.003
1.301,-0.002
1.302,-0.009
1.303,-0.015
1.304,-0.013
1.305,0.001
1.306,0.027
1.307,0.048
1.308,0.053
1.309,0.055
1.31,0.054
1.311,0.027
1.312,0.02
1.313,0.014
1.314,0.01
1.315,0.003
1.316,0.009
1.317,0.021
1.318,0.015
1.319,0.009
1.32,0.005
1.321,0
1.322,0
1.323,-0.001
1.324,0.003
1.325,0.004
1.326,0.002
1.327,-0.004
1.328,-0.005
1.329,-0.012
1.33,-0.014
1.331,-0.02
1.332,-0.023
1.333,-0.021
1.334,-0.02
1.335,-0.028
1.336,-0.025
1.337,-0.025
1.338,-0.03
1.339,-0.034
1.34,-0.043
1.341,-0.039
1.342,-0.036
1.343,-0.044
1.344,-0.028
1.345,-0.022
1.346,-0.011
1.347,-0.012
1.348,-0.007
1.349,-0.014
1.35,-0.011
1.351,-0.013
1.352,-0.019
1.353,-0.019
1.354,-0.013
1.355,0.004
1.356,0.019
1.357,0.016
1.358,0.019
1.359,0.021
1.36,0.022
1.361,0.005
1.362,-0.012
1.363,-0.027
1.364,-0.024
1.365,-0.016
1.366,-0.015
1.367,-0.002
1.368,0.008
1.369,-0.001
1.37,-0.007
1.371,-0.001
1.372,0.012
1.373,0.026
1.374,0.027
1.375,0.032
1.376,0.027
1.377,0.019
1.378,0.022
1.379,0.03
1.38,0.036
1.381,0.038
1.382,0.043
1.383,0.046
1.384,0.04
1.385,0.035
1.386,0.027
1.387,0.024
1.388,0.023
1.389,0.016
1.39,0.007
1.391,0.007
1.392,0.011
1.393,0.016
1.394,0.01
1.395,0.006
1.396,0.003
1.397,0.003
1.398,0.012
1.399,0.012
1.4,0.008
1.401,0.005
1.402,0.004
1.403,0.004
1.404,0.004
1.405,0.012
1.406,0.022
1.407,0.009
1.408,0
1.409,-0.006
1.41,-0.023
1.411,-0.025
1.412,-0.025
1.413,-0.031
1.414,-0.045
1.415,-0.051
1.416,-0.05
1.417,-0.046
1.418,-0.055
1.419,-0.059
1.42,-0.06
1.421,-0.063
1.422,-0.062
1.423,-0.062
1.424,-0.063
1.425,-0.075
1.426,-0.085
1.427,-0.092
1.428,-0.094
1.429,-0.087
1.43,-0.085
1.431,-0.077
1.432,-0.091
1.433,-0.106
1.434,-0.114
1.435,-0.121
1.436,-0.133
1.437,-0.146
1.438,-0.159
1.439,-0.168
1.44,-0.167
1.441,-0.179
1.442,-0.19
1.443,-0.2
1.444,-0.205
1.445,-0.21
1.446,-0.213
1.447,-0.21
1.448,-0.217
1.449,-0.219
1.45,-0.225
1.451,-0.239
1.452,-0.246
1.453,-0.257
1.454,-0.276
1.455,-0.298
1.456,-0.297
1.457,-0.305
1.458,-0.312
1.459,-0.305
1.46,-0.3
1.461,-0.312
1.462,-0.321
1.463,-0.318
1.464,-0.306
1.465,-0.302
1.466,-0.296
1.467,-0.297
1.468,-0.294
1.469,-0.287
1.47,-0.29
1.471,-0.301
1.472,-0.31
1.473,-0.312
1.474,-0.265
1.475,-0.362
1.476,-0.303
1.477,-0.302
1.478,-0.293
1.479,-0.296
1.48,-0.295
1.481,-0.286
1.482,-0.291
1.483,-0.287
1.484,-0.268
1.485,-0.243
1.486,-0.231
1.487,-0.229
1.488,-0.228
1.489,-0.229
1.49,-0.236
1.491,-0.243
1.492,-0.242
1.493,-0.217
1.494,-0.206
1.495,-0.199
1.496,-0.189
1.497,-0.187
1.498,-0.178
1.499,-0.163
1.5,-0.152
1.501,-0.15
1.502,-0.149
1.503,-0.144
1.504,-0.137
1.505,-0.121
1.506,-0.119
1.507,-0.132
1.508,-0.126
1.509,-0.123
1.51,-0.104
1.511,-0.096
1.512,-0.097
1.513,-0.082
1.514,-0.056
1.515,-0.042
1.516,-0.047
1.517,-0.04
1.518,-0.033
1.519,-0.037
1.52,-0.043
1.521,-0.051
1.522,-0.051
1.523,-0.035
1.524,-0.019
1.525,-0.012
1.526,-0.011
1.527,-0.009
1.528,-0.002
1.529,0.012
1.53,0.024
1.531,0.024
1.532,0.032
1.533,0.042
1.534,0.039
1.535,0.045
1.536,0.055
1.537,0.043
1.538,0.042
1.539,0.045
1.54,0.046
1.541,0.051
1.542,0.058
1.543,0.061
1.544,0.057
1.545,0.055
1.546,0.046
1.547,0.029
1.548,0.023
1.549,0.024
1.55,0.021
1.551,0.027
1.552,0.045
1.553,0.056
1.554,0.079
1.555,0.102
1.556,0.103
1.557,0.114
1.558,0.129
1.559,0.116
1.56,0.112
1.561,0.127
1.562,0.13
1.563,0.135
1.564,0.143
1.565,0.144
1.566,0.157
1.567,0.153
1.568,0.14
1.569,0.135
1.57,0.129
1.571,0.111
1.572,0.103
1.573,0.106
1.574,0.108
1.575,0.094
1.576,0.096
1.577,0.089
1.578,0.085
1.579,0.089
1.58,0.094
1.581,0.082
1.582,0.078
1.583,0.071
1.584,0.063
1.585,0.072
1.586,0.092
1.587,0.099
1.588,0.108
1.589,0.115
1.59,0.138
1.591,0.148
1.592,0.129
1.593,0.122
1.594,0.122
1.595,0.116
1.596,0.109
1.597,0.101
1.598,0.1
1.599,0.11
1.6,0.111
1.601,0.118
1.602,0.129
1.603,0.141
1.604,0.149
1.605,0.151
1.606,0.145
1.607,0.142
1.608,0.134
1.609,0.116
1.61,0.099
1.611,0.098
1.612,0.096
1.613,0.09
1.614,0.098
1.615,0.1
1.616,0.11
1.617,0.117
1.618,0.112
1.619,0.1
1.62,0.091
1.621,0.083
1.622,0.076
1.623,0.071
1.624,0.076
1.625,0.067
1.626,0.061
1.627,0.055
1.628,0.058
1.629,0.059
1.63,0.069
1.631,0.066
1.632,0.06
1.633,0.069
1.634,0.086
1.635,0.106
1.636,0.113
1.637,0.101
1.638,0.079
1.639,0.066
1.64,0.047
1.641,0.053
1.642,0.061
1.643,0.055
1.644,0.048
1.645,0.062
1.646,0.066
1.647,0.073
1.648,0.072
1.649,0.069
1.65,0.068
1.651,0.054
1.652,0.048
1.653,0.042
1.654,0.035
1.655,0.04
1.656,0.042
1.657,0.047
1.658,0.051
1.659,0.05
1.66,0.034
1.661,0.013
1.662,0.006
1.663,0.013
1.664,0.011
1.665,0.012
1.666,0.03
1.667,0.037
1.668,0.041
1.669,0.055
1.67,0.073
1.671,0.07
1.672,0.044
1.673,0.041
1.674,0.04
1.675,0.03
1.676,0.026
1.677,0.032
1.678,0.034
1.679,0.026
1.68,0.012
1.681,-0.001
1.682,0.003
1.683,0.016
1.684,0.005
1.685,0.006
1.686,0.023
1.687,0.036
1.688,0.049
1.689,0.058
1.69,0.057
1.691,0.051
1.692,0.054
1.693,0.058
1.694,0.053
1.695,0.056
1.696,0.061
1.697,0.063
1.698,0.051
1.699,0.04
1.7,0.03
1.701,0.029
1.702,0.028
1.703,0.027
1.704,0.028
1.705,0.032
1.706,0.028
1.707,0.024
1.708,0.023
1.709,0.025
1.71,0.03
1.711,0.015
1.712,0.001
1.713,-0.015
1.714,-0.025
1.715,-0.031
1.716,-0.022
1.717,-0.015
1.718,-0.01
1.719,-0.018
1.72,-0.026
1.721,-0.018
1.722,0.008
1.723,0.012
1.724,0.009
1.725,0.001
1.726,-0.004
1.727,0
1.728,0.016
1.729,0.017
1.73,0.019
1.731,0.015
1.732,0.005
1.733,-0.006
1.734,0.003
1.735,0.013
1.736,0.017
1.737,0.02
1.738,0.006
1.739,-0.009
1.74,-0.014
1.741,-0.026
1.742,-0.038
1.743,-0.035
1.744,-0.037
1.745,-0.042
1.746,-0.034
1.747,-0.034
1.748,-0.012
1.749,-0.002
1.75,-0.002
1.751,0.004
1.752,-0.001
1.753,-0.006
1.754,-0.006
1.755,0.004
1.756,0.014
1.757,0.018
1.758,0.008
1.759,0.008
1.76,0.02
1.761,0.025
1.762,0.026
1.763,0.021
1.764,0.008
1.765,-0.013
1.766,-0.022
1.767,-0.018
1.768,-0.003
1.769,0.025
1.77,0.048
1.771,0.065
1.772,0.065
1.773,0.065
1.774,0.057
1.775,0.059
1.776,0.068
1.777,0.066
1.778,0.062
1.779,0.06
1.78,0.062
1.781,0.047
1.782,0.037
1.783,0.019
1.784,0.009
1.785,0.012
1.786,0.01
1.787,0.021
1.788,0.017
1.789,0.006
1.79,-0.002
1.791,0.006
1.792,0.005
1.793,0.019
1.794,0.031
1.795,0.038
1.796,0.058
1.797,0.068
1.798,0.077
1.799,0.08
1.8,0.085
1.801,0.098
1.802,0.094
1.803,0.087
1.804,0.076
1.805,0.061
1.806,0.057
1.807,0.054
1.808,0.058
1.809,0.042
1.81,0.041
1.811,0.057
1.812,0.068
1.813,0.059
1.814,0.041
1.815,0.023
1.816,0.011
1.817,-0.006
1.818,-0.019
1.819,-0.017
1.82,-0.024
1.821,-0.034
1.822,-0.049
1.823,-0.062
1.824,-0.062
1.825,-0.061
1.826,-0.057
1.827,-0.051
1.828,-0.043
1.829,-0.049
1.83,-0.051
1.831,-0.052
1.832,-0.06
1.833,-0.067
1.834,-0.076
1.835,-0.072
1.836,-0.08
1.837,-0.035
1.838,-0.126
1.839,-0.081
1.84,-0.086
1.841,-0.073
1.842,-0.066
1.843,-0.057
1.844,-0.052
1.845,-0.069
1.846,-0.077
1.847,-0.063
1.848,-0.038
1.849,-0.038
1.85,-0.044
1.851,-0.04
1.852,-0.043
1.853,-0.061
1.854,-0.062
1.855,-0.062
1.856,-0.067
1.857,-0.067
1.858,-0.065
1.859,-0.069
1.86,-0.081
1.861,-0.086
1.862,-0.097
1.863,-0.115
1.864,-0.128
1.865,-0.136
1.866,-0.127
1.867,-0.117
1.868,-0.116
1.869,-0.11
1.87,-0.107
1.871,-0.101
1.872,-0.076
1.873,-0.065
1.874,-0.057
1.875,-0.052
1.876,-0.041
1.877,-0.035
1.878,-0.037
1.879,-0.034
1.88,-0.029
1.881,-0.038
1.882,-0.026
1.883,-0.006
1.884,-0.004
1.885,-0.003
1.886,-0.002
1.887,-0.003
1.888,-0.003
1.889,0.005
1.89,0.008
1.891,0.013
1.892,0.018
1.893,0.006
1.894,-0.002
1.895,0
1.896,-0.003
1.897,0.001
1.898,0.001
1.899,-0.002
1.9,-0.008
1.901,-0.008
1.902,-0.008
1.903,-0.015
1.904,-0.023
1.905,-0.019
1.906,-0.007
1.907,0.004
1.908,0.012
1.909,0.041
1.91,0.065
1.911,0.078
1.912,0.078
1.913,0.089
1.914,0.1
1.915,0.108
1.916,0.119
1.917,0.134
1.918,0.168
1.919,0.205
1.92,0.26
1.921,0.332
1.922,0.411
1.923,0.497
1.924,0.574
1.925,0.638
1.926,0.709
1.927,0.76
1.928,0.822
1.929,0.88
1.93,0.922
1.931,0.979
1.932,1.011
1.933,1.023
1.934,0.992
1.935,0.922
1.936,0.793
1.937,0.636
1.938,0.443
1.939,0.237
1.94,0.017
1.941,-0.199
1.942,-0.431
1.943,-0.68
1.944,-0.994
1.945,-1.252
1.946,-1.421
1.947,-1.517
1.948,-1.564
1.949,-1.59
1.95,-1.577
1.951,-1.546
1.952,-1.517
1.953,-1.486
1.954,-1.46
1.955,-1.423
1.956,-1.386
1.957,-1.326
1.958,-1.258
1.959,-1.175
1.96,-1.082
1.961,-0.977
1.962,-0.865
1.963,-0.755
1.964,-0.648
1.965,-0.567
1.966,-0.52
1.967,-0.45
1.968,-0.361
1.969,-0.283
1.97,-0.232
1.971,-0.205
1.972,-0.154
1.973,-0.094
1.974,-0.027
1.975,0.03
1.976,0.11
1.977,0.181
1.978,0.218
1.979,0.241
1.98,0.28
1.981,0.303
1.982,0.333
1.983,0.355
1.984,0.385
1.985,0.412
1.986,0.427
1.987,0.45
1.988,0.483
1.989,0.487
1.99,0.475
1.991,0.469
1.992,0.466
1.993,0.446
1.994,0.44
1.995,0.435
1.996,0.437
1.997,0.428
1.998,0.432
1.999,0.434
2,0.439
2.001,0.432
2.002,0.427
2.003,0.426
2.004,0.406
2.005,0.38
2.006,0.376
2.007,0.37
2.008,0.363
2.009,0.356
2.01,0.348
2.011,0.336
2.012,0.325
2.013,0.314
2.014,0.303
2.015,0.287
2.016,0.275
2.017,0.276
2.018,0.272
2.019,0.264
2.02,0.266
2.021,0.274
2.022,0.273
2.023,0.268
2.024,0.269
2.025,0.244
2.026,0.221
2.027,0.2
2.028,0.201
2.029,0.205
2.03,0.204
2.031,0.193
2.032,0.178
2.033,0.174
2.034,0.177
2.035,0.183
2.036,0.19
2.037,0.185
2.038,0.169
2.039,0.161
2.04,0.175
2.041,0.168
2.042,0.169
2.043,0.17
2.044,0.173
2.045,0.168
2.046,0.168
2.047,0.166
2.048,0.157
2.049,0.156
2.05,0.152
2.051,0.133
2.052,0.126
2.053,0.117
2.054,0.12
2.055,0.117
2.056,0.11
2.057,0.115
2.058,0.116
2.059,0.103
2.06,0.085
2.061,0.072
2.062,0.069
2.063,0.067
2.064,0.064
2.065,0.059
2.066,0.053
2.067,0.054
2.068,0.053
2.069,0.047
2.07,0.036
2.071,0.032
2.072,0.028
2.073,0.014
2.074,0
2.075,-0.004
2.076,-0.013
2.077,-0.019
2.078,-0.013
2.079,-0.009
2.08,0
2.081,0.01
2.082,0.007
2.083,0.009
2.084,0.012
2.085,0.005
2.086,0.005
2.087,0.012
2.088,0.016
2.089,0.014
2.09,0.014
2.091,0.011
2.092,0.003
2.093,-0.003
2.094,0.004
2.095,-0.003
2.096,-0.02
2.097,-0.024
2.098,-0.012
2.099,-0.004
2.1,0.001
2.101,0.013
2.102,0.017
2.103,0.004
2.104,-0.022
2.105,-0.033
2.106,-0.054
2.107,-0.075
2.108,-0.084
2.109,-0.084
2.11,-0.074
2.111,-0.071
2.112,-0.052
2.113,-0.037
2.114,-0.025
2.115,-0.021
2.116,-0.028
2.117,-0.042
2.118,-0.039
2.119,-0.03
2.12,-0.006
2.121,0.018
2.122,0.028
2.123,0.043
2.124,0.054
2.125,0.05
2.126,0.041
2.127,0.055
2.128,0.061
2.129,0.051
2.13,0.058
2.131,0.067
2.132,0.043
2.133,0.032
2.134,0.023
2.135,0.009
2.136,0.01
2.137,0.006
2.138,0.008
2.139,0.021
2.14,0.015
2.141,0.008
2.142,0.002
2.143,0.001
2.144,0.011
2.145,0.006
2.146,-0.009
2.147,-0.005
2.148,-0.006
2.149,-0.01
2.15,0.01
2.151,0.033
2.152,0.038
2.153,0.034
2.154,0.042
2.155,0.041
2.156,0.042
2.157,0.048
2.158,0.063
2.159,0.063
2.16,0.056
2.161,0.047
2.162,0.034
2.163,0.032
2.164,0.031
2.165,0.031
2.166,0.025
2.167,0.016
2.168,0.008
2.169,0.003
2.17,0.001
2.171,-0.003
2.172,0.006
2.173,0.008
2.174,0.002
2.175,0.007
2.176,-0.003
2.177,-0.012
2.178,-0.021
2.179,-0.027
2.18,-0.038
2.181,-0.051
2.182,-0.053
2.183,-0.087
2.184,-0.113
2.185,-0.121
2.186,-0.125
2.187,-0.137
2.188,-0.109
2.189,-0.072
2.19,-0.055
2.191,-0.033
2.192,-0.024
2.193,-0.035
2.194,-0.049
2.195,-0.066
2.196,-0.077
2.197,-0.075
2.198,-0.072
2.199,-0.08
2.2,-0.051
2.201,-0.129
2.202,-0.098
2.203,-0.093
2.204,-0.09
2.205,-0.093
2.206,-0.111
2.207,-0.125
2.208,-0.13
2.209,-0.126
2.21,-0.133
2.211,-0.145
2.212,-0.153
2.213,-0.164
2.214,-0.174
2.215,-0.197
2.216,-0.21
2.217,-0.226
2.218,-0.239
2.219,-0.25
2.22,-0.264
2.221,-0.271
2.222,-0.266
2.223,-0.257
2.224,-0.256
2.225,-0.276
2.226,-0.284
2.227,-0.287
2.228,-0.289
2.229,-0.289
2.23,-0.306
2.231,-0.318
2.232,-0.314
2.233,-0.313
2.234,-0.315
2.235,-0.32
2.236,-0.313
2.237,-0.296
2.238,-0.291
2.239,-0.299
2.24,-0.306
2.241,-0.31
2.242,-0.318
2.243,-0.314
2.244,-0.308
2.245,-0.299
2.246,-0.301
2.247,-0.304
2.248,-0.302
2.249,-0.3
2.25,-0.291
2.251,-0.284
2.252,-0.288
2.253,-0.299
2.254,-0.294
2.255,-0.282
2.256,-0.277
2.257,-0.261
2.258,-0.245
2.259,-0.243
2.26,-0.248
2.261,-0.249
2.262,-0.25
2.263,-0.24
2.264,-0.234
2.265,-0.235
2.266,-0.213
2.267,-0.182
2.268,-0.164
2.269,-0.167
2.27,-0.169
2.271,-0.168
2.272,-0.158
2.273,-0.15
2.274,-0.137
2.275,-0.131
2.276,-0.143
2.277,-0.141
2.278,-0.121
2.279,-0.109
2.28,-0.121
2.281,-0.121
2.282,-0.122
2.283,-0.115
2.284,-0.091
2.285,-0.066
2.286,-0.048
2.287,-0.063
2.288,-0.059
2.289,-0.058
2.29,-0.062
2.291,-0.06
2.292,-0.061
2.293,-0.059
2.294,-0.051
2.295,-0.046
2.296,-0.036
2.297,-0.023
2.298,-0.009
2.299,0.011
2.3,0.019
2.301,0.029
2.302,0.033
2.303,0.042
2.304,0.055
2.305,0.062
2.306,0.061
2.307,0.059
2.308,0.059
2.309,0.063
2.31,0.067
2.311,0.064
2.312,0.055
2.313,0.052
2.314,0.049
2.315,0.051
2.316,0.06
2.317,0.059
2.318,0.054
2.319,0.061
2.32,0.066
2.321,0.08
2.322,0.078
2.323,0.075
2.324,0.072
2.325,0.066
2.326,0.06
2.327,0.054
2.328,0.055
2.329,0.058
2.33,0.049
2.331,0.051
2.332,0.068
2.333,0.089
2.334,0.106
2.335,0.125
2.336,0.131
2.337,0.119
2.338,0.109
2.339,0.105
2.34,0.116
2.341,0.127
2.342,0.138
2.343,0.126
2.344,0.125
2.345,0.128
2.346,0.114
2.347,0.116
2.348,0.124
2.349,0.135
2.35,0.14
2.351,0.148
2.352,0.15
2.353,0.156
2.354,0.153
2.355,0.146
2.356,0.134
2.357,0.127
2.358,0.129
2.359,0.121
2.36,0.114
2.361,0.114
2.362,0.104
2.363,0.098
2.364,0.093
2.365,0.082
2.366,0.076
2.367,0.091
2.368,0.104
2.369,0.111
2.37,0.119
2.371,0.113
2.372,0.119
2.373,0.135
2.374,0.144
2.375,0.131
2.376,0.121
2.377,0.111
2.378,0.089
2.379,0.076
2.38,0.072
2.381,0.077
2.382,0.086
2.383,0.092
2.384,0.092
2.385,0.085
2.386,0.09
2.387,0.089
2.388,0.087
2.389,0.09
2.39,0.089
2.391,0.091
2.392,0.093
2.393,0.097
2.394,0.109
2.395,0.111
2.396,0.119
2.397,0.111
2.398,0.107
2.399,0.106
2.4,0.099
2.401,0.085
2.402,0.074
2.403,0.074
2.404,0.064
2.405,0.062
2.406,0.059
2.407,0.051
2.408,0.051
2.409,0.073
2.41,0.082
2.411,0.067
2.412,0.048
2.413,0.049
2.414,0.047
2.415,0.056
2.416,0.05
2.417,0.049
2.418,0.053
2.419,0.059
2.42,0.072
2.421,0.073
2.422,0.074
2.423,0.077
2.424,0.07
2.425,0.065
2.426,0.06
2.427,0.065
2.428,0.064
2.429,0.048
2.43,0.037
2.431,0.032
2.432,0.023
2.433,0.026
2.434,0.028
2.435,0.027
2.436,0.029
2.437,0.026
2.438,0.038
2.439,0.043
2.44,0.052
2.441,0.064
2.442,0.067
2.443,0.065
2.444,0.065
2.445,0.052
2.446,0.046
2.447,0.046
2.448,0.042
2.449,0.041
2.45,0.043
2.451,0.045
2.452,0.038
2.453,0.036
2.454,0.041
2.455,0.048
2.456,0.044
2.457,0.039
2.458,0.042
2.459,0.04
2.46,0.029
2.461,0.022
2.462,0.022
2.463,0.025
2.464,0.023
2.465,0.01
2.466,0
2.467,-0.008
2.468,-0.01
2.469,-0.005
2.47,0.003
2.471,0.01
2.472,0.017
2.473,0.031
2.474,0.044
2.475,0.018
2.476,-0.014
2.477,-0.014
2.478,-0.01
2.479,0
2.48,0.015
2.481,0.019
2.482,0.03
2.483,0.04
2.484,0.046
2.485,0.039
2.486,0.042
2.487,0.041
2.488,0.042
2.489,0.046
2.49,0.053
2.491,0.054
2.492,0.044
2.493,0.045
2.494,0.044
2.495,0.055
2.496,0.057
2.497,0.047
2.498,0.036
2.499,0.016
2.5,0.008
2.501,0.004
2.502,-0.006
2.503,0.006
2.504,0.024
2.505,0.021
2.506,0.015
2.507,0.02
2.508,0.027
2.509,0.022
2.51,0.023
2.511,0.055
2.512,0.087
2.513,0.08
2.514,0.057
2.515,0.046
2.516,0.049
2.517,0.051
2.518,0.051
2.519,0.057
2.52,0.058
2.521,0.052
2.522,0.055
2.523,0.055
2.524,0.06
2.525,0.055
2.526,0.062
2.527,0.068
2.528,0.066
2.529,0.051
2.53,0.06
2.531,0.063
2.532,0.052
2.533,0.044
2.534,0.033
2.535,0.027
2.536,0.008
2.537,0
2.538,-0.007
2.539,-0.008
2.54,-0.012
2.541,-0.007
2.542,-0.01
2.543,-0.03
2.544,-0.044
2.545,-0.043
2.546,-0.041
2.547,-0.042
2.548,-0.04
2.549,-0.059
2.55,-0.07
2.551,-0.058
2.552,-0.048
2.553,-0.042
2.554,-0.032
2.555,-0.02
2.556,-0.012
2.557,-0.003
2.558,-0.01
2.559,-0.027
2.56,-0.031
2.561,-0.048
2.562,-0.054
2.563,-0.04
2.564,-0.073
2.565,-0.068
2.566,-0.063
2.567,-0.06
2.568,-0.066
2.569,-0.062
2.57,-0.069
2.571,-0.089
2.572,-0.099
2.573,-0.122
2.574,-0.137
2.575,-0.133
2.576,-0.114
2.577,-0.099
2.578,-0.095
2.579,-0.086
2.58,-0.073
2.581,-0.067
2.582,-0.065
2.583,-0.063
2.584,-0.065
2.585,-0.065
2.586,-0.055
2.587,-0.049
2.588,-0.041
2.589,-0.039
2.59,-0.038
2.591,-0.049
2.592,-0.035
2.593,-0.032
2.594,-0.043
2.595,-0.041
2.596,-0.037
2.597,-0.051
2.598,-0.056
2.599,-0.056
2.6,-0.061
2.601,-0.059
2.602,-0.053
2.603,-0.037
2.604,-0.035
2.605,-0.041
2.606,-0.041
2.607,-0.042
2.608,-0.034
2.609,-0.027
2.61,-0.025
2.611,-0.016
2.612,-0.015
2.613,-0.029
2.614,-0.04
2.615,-0.037
2.616,-0.035
2.617,-0.039
2.618,-0.037
2.619,-0.048
2.62,-0.043
2.621,-0.035
2.622,-0.033
2.623,-0.043
2.624,-0.047
2.625,-0.037
2.626,-0.034
2.627,-0.026
2.628,-0.018
2.629,0.004
2.63,0.022
2.631,0.035
2.632,0.039
2.633,0.061
2.634,0.078
2.635,0.076
2.636,0.083
2.637,0.109
2.638,0.139
2.639,0.167
2.64,0.182
2.641,0.195
2.642,0.215
2.643,0.253
2.644,0.324
2.645,0.401
2.646,0.476
2.647,0.552
2.648,0.613
2.649,0.697
2.65,0.775
2.651,0.817
2.652,0.851
2.653,0.874
2.654,0.903
2.655,0.946
2.656,0.96
2.657,0.952
2.658,0.924
2.659,0.83
2.66,0.7
2.661,0.523
2.662,0.333
2.663,0.113
2.664,-0.102
2.665,-0.304
2.666,-0.534
2.667,-0.813
2.668,-1.123
2.669,-1.334
2.67,-1.463
2.671,-1.531
2.672,-1.584
2.673,-1.584
2.674,-1.581
2.675,-1.561
2.676,-1.527
2.677,-1.48
2.678,-1.442
2.679,-1.412
2.68,-1.374
2.681,-1.299
2.682,-1.209
2.683,-1.127
2.684,-1.026
2.685,-0.936
2.686,-0.822
2.687,-0.727
2.688,-0.649
2.689,-0.563
2.69,-0.497
2.691,-0.431
2.692,-0.376
2.693,-0.317
2.694,-0.242
2.695,-0.193
2.696,-0.122
2.697,-0.045
2.698,0.026
2.699,0.099
2.7,0.168
2.701,0.233
2.702,0.264
2.703,0.292
2.704,0.328
2.705,0.356
2.706,0.388
2.707,0.395
2.708,0.403
2.709,0.417
2.71,0.441
2.711,0.457
2.712,0.474
2.713,0.475
2.714,0.467
2.715,0.442
2.716,0.433
2.717,0.438
2.718,0.435
2.719,0.426
2.72,0.409
2.721,0.405
2.722,0.409
2.723,0.412
2.724,0.413
2.725,0.408
2.726,0.39
2.727,0.383
2.728,0.39
2.729,0.395
2.73,0.389
2.731,0.37
2.732,0.353
2.733,0.357
2.734,0.352
2.735,0.33
2.736,0.305
2.737,0.309
2.738,0.322
2.739,0.32
2.74,0.286
2.741,0.284
2.742,0.293
2.743,0.302
2.744,0.298
2.745,0.301
2.746,0.3
2.747,0.291
2.748,0.282
2.749,0.275
2.75,0.273
2.751,0.269
2.752,0.257
2.753,0.239
2.754,0.217
2.755,0.226
2.756,0.227
2.757,0.221
2.758,0.212
2.759,0.21
2.76,0.199
2.761,0.196
2.762,0.194
2.763,0.193
2.764,0.189
2.765,0.177
2.766,0.164
2.767,0.167
2.768,0.161
2.769,0.149
2.77,0.146
2.771,0.148
2.772,0.143
2.773,0.141
2.774,0.129
2.775,0.115
2.776,0.112
2.777,0.101
2.778,0.09
2.779,0.088
2.78,0.087
2.781,0.081
2.782,0.069
2.783,0.056
2.784,0.057
2.785,0.054
2.786,0.047
2.787,0.05
2.788,0.052
2.789,0.053
2.79,0.064
2.791,0.079
2.792,0.067
2.793,0.06
2.794,0.055
2.795,0.052
2.796,0.053
2.797,0.054
2.798,0.031
2.799,0.023
2.8,0.018
2.801,0.008
2.802,0.001
2.803,0.001
2.804,0.007
2.805,0.006
2.806,-0.008
2.807,-0.015
2.808,-0.025
2.809,-0.03
2.81,-0.029
2.811,-0.031
2.812,-0.03
2.813,-0.032
2.814,-0.021
2.815,-0.011
2.816,-0.007
2.817,-0.004
2.818,-0.008
2.819,0.006
2.82,0.006
2.821,0.007
2.822,0.008
2.823,0.013
2.824,0.016
2.825,0.018
2.826,0.019
2.827,0.006
2.828,0.002
2.829,-0.004
2.83,-0.003
2.831,0.003
2.832,0.009
2.833,0.004
2.834,-0.009
2.835,-0.024
2.836,-0.032
2.837,-0.036
2.838,-0.039
2.839,-0.041
2.84,-0.042
2.841,-0.034
2.842,-0.036
2.843,-0.03
2.844,-0.012
2.845,-0.015
2.846,-0.014
2.847,-0.009
2.848,-0.006
2.849,-0.015
2.85,0.009
2.851,0.026
2.852,0.011
2.853,-0.007
2.854,-0.021
2.855,-0.008
2.856,0.005
2.857,0.004
2.858,0.02
2.859,0.023
2.86,0.011
2.861,0.012
2.862,0.026
2.863,0.035
2.864,0.045
2.865,0.045
2.866,0.033
2.867,0.025
2.868,0.019
2.869,0.009
2.87,0.004
2.871,0.011
2.872,0.016
2.873,0.02
2.874,0.029
2.875,0.026
2.876,0.007
2.877,-0.003
2.878,-0.01
2.879,0
2.88,0.013
2.881,0.03
2.882,0.041
2.883,0.046
2.884,0.04
2.885,0.036
2.886,0.038
2.887,0.029
2.888,0.031
2.889,0.029
2.89,0.032
2.891,0.034
2.892,0.039
2.893,0.031
2.894,0.024
2.895,0.025
2.896,0.021
2.897,-0.006
2.898,-0.019
2.899,-0.016
2.9,-0.024
2.901,-0.033
2.902,-0.05
2.903,-0.051
2.904,-0.055
2.905,-0.079
2.906,-0.094
2.907,-0.099
2.908,-0.106
2.909,-0.089
2.91,-0.078
2.911,-0.064
2.912,-0.05
2.913,-0.039
2.914,-0.032
2.915,-0.035
2.916,-0.032
2.917,-0.036
2.918,-0.046
2.919,-0.043
2.92,-0.048
2.921,-0.062
2.922,-0.067
2.923,-0.076
2.924,-0.091
2.925,-0.105
2.926,-0.099
2.927,-0.109
2.928,-0.145
2.929,-0.153
2.93,-0.17
2.931,-0.174
2.932,-0.184
2.933,-0.18
2.934,-0.174
2.935,-0.179
2.936,-0.187
2.937,-0.211
2.938,-0.238
2.939,-0.249
2.94,-0.251
2.941,-0.26
2.942,-0.265
2.943,-0.253
2.944,-0.261
2.945,-0.267
2.946,-0.281
2.947,-0.284
2.948,-0.295
2.949,-0.286
2.95,-0.278
2.951,-0.271
2.952,-0.273
2.953,-0.283
2.954,-0.293
2.955,-0.291
2.956,-0.306
2.957,-0.305
2.958,-0.311
2.959,-0.33
2.96,-0.337
2.961,-0.321
2.962,-0.311
2.963,-0.308
2.964,-0.317
2.965,-0.324
2.966,-0.327
2.967,-0.335
2.968,-0.331
2.969,-0.311
2.97,-0.302
2.971,-0.303
2.972,-0.278
2.973,-0.286
2.974,-0.282
2.975,-0.276
2.976,-0.28
2.977,-0.27
2.978,-0.246
2.979,-0.239
2.98,-0.236
2.981,-0.231
2.982,-0.225
2.983,-0.212
2.984,-0.206
2.985,-0.205
2.986,-0.199
2.987,-0.197
2.988,-0.206
2.989,-0.195
2.99,-0.187
2.991,-0.193
2.992,-0.193
2.993,-0.188
2.994,-0.186
2.995,-0.181
2.996,-0.176
2.997,-0.165
2.998,-0.153
2.999,-0.143
3,-0.128
3.001,-0.122
3.002,-0.122
3.003,-0.119
3.004,-0.112
3.005,-0.11
3.006,-0.1
3.007,-0.1
3.008,-0.084
3.009,-0.073
3.01,-0.065
3.011,-0.058
3.012,-0.068
3.013,-0.074
3.014,-0.067
3.015,-0.049
3.016,-0.046
3.017,-0.038
3.018,-0.039
3.019,-0.046
3.02,-0.043
3.021,-0.03
3.022,-0.032
3.023,-0.03
3.024,-0.014
3.025,0.002
3.026,0.016
3.027,0.027
3.028,0.019
3.029,0.024
3.03,0.023
3.031,0.024
3.032,0.028
3.033,0.037
3.034,0.036
3.035,0.031
3.036,0.034
3.037,0.062
3.038,0.097
3.039,0.092
3.04,0.077
3.041,0.069
3.042,0.062
3.043,0.071
3.044,0.088
3.045,0.088
3.046,0.085
3.047,0.105
3.048,0.096
3.049,0.1
3.05,0.114
3.051,0.12
3.052,0.124
3.053,0.116
3.054,0.122
3.055,0.123
3.056,0.122
3.057,0.114
3.058,0.101
3.059,0.095
3.06,0.101
3.061,0.11
3.062,0.124
3.063,0.114
3.064,0.122
3.065,0.141
3.066,0.145
3.067,0.138
3.068,0.134
3.069,0.142
3.07,0.14
3.071,0.14
3.072,0.141
3.073,0.131
3.074,0.125
3.075,0.119
3.076,0.113
3.077,0.104
3.078,0.11
3.079,0.107
3.08,0.104
3.081,0.116
3.082,0.119
3.083,0.117
3.084,0.121
3.085,0.113
3.086,0.104
3.087,0.112
3.088,0.117
3.089,0.125
3.09,0.116
3.091,0.107
3.092,0.105
3.093,0.097
3.094,0.085
3.095,0.085
3.096,0.093
3.097,0.096
3.098,0.09
3.099,0.084
3.1,0.089
3.101,0.101
3.102,0.114
3.103,0.113
3.104,0.103
3.105,0.102
3.106,0.099
3.107,0.089
3.108,0.083
3.109,0.095
3.11,0.101
3.111,0.083
3.112,0.084
3.113,0.092
3.114,0.081
3.115,0.072
3.116,0.071
3.117,0.074
3.118,0.081
3.119,0.099
3.12,0.109
3.121,0.097
3.122,0.088
3.123,0.077
3.124,0.071
3.125,0.077
3.126,0.078
3.127,0.088
3.128,0.082
3.129,0.084
3.13,0.095
3.131,0.1
3.132,0.098
3.133,0.091
3.134,0.084
3.135,0.085
3.136,0.079
3.137,0.078
3.138,0.076
3.139,0.08
3.14,0.074
3.141,0.074
3.142,0.07
3.143,0.065
3.144,0.063
3.145,0.052
3.146,0.042
3.147,0.032
3.148,0.025
3.149,0.03
3.15,0.025
3.151,0.021
3.152,0.02
3.153,0.032
3.154,0.041
3.155,0.036
3.156,0.034
3.157,0.04
3.158,0.044
3.159,0.045
3.16,0.052
3.161,0.04
3.162,0.046
3.163,0.056
3.164,0.053
3.165,0.049
3.166,0.044
3.167,0.046
3.168,0.046
3.169,0.035
3.17,0.03
3.171,0.026
3.172,0.02
3.173,0.015
3.174,0.017
3.175,0.023
3.176,0.024
3.177,0.02
3.178,0.019
3.179,0.011
3.18,-0.007
3.181,-0.011
3.182,-0.006
3.183,-0.013
3.184,-0.011
3.185,0.006
3.186,0.007
3.187,0.009
3.188,0.024
3.189,0.048
3.19,0.048
3.191,0.018
3.192,0.022
3.193,0.024
3.194,0.02
3.195,0.023
3.196,0.023
3.197,0.032
3.198,0.05
3.199,0.067
3.2,0.065
3.201,0.066
3.202,0.067
3.203,0.07
3.204,0.07
3.205,0.064
3.206,0.054
3.207,0.059
3.208,0.067
3.209,0.073
3.21,0.07
3.211,0.056
3.212,0.047
3.213,0.042
3.214,0.041
3.215,0.045
3.216,0.036
3.217,0.03
3.218,0.032
3.219,0.047
3.22,0.05
3.221,0.03
3.222,0.019
3.223,0.025
3.224,0.047
3.225,0.045
3.226,0.045
3.227,0.038
3.228,0.027
3.229,0.027
3.23,0.044
3.231,0.064
3.232,0.075
3.233,0.077
3.234,0.083
3.235,0.08
3.236,0.084
3.237,0.081
3.238,0.069
3.239,0.062
3.24,0.06
3.241,0.058
3.242,0.048
3.243,0.04
3.244,0.031
3.245,0.023
3.246,0.009
3.247,0.003
3.248,-0.005
3.249,-0.02
3.25,-0.021
3.251,-0.019
3.252,-0.014
3.253,-0.024
3.254,-0.035
3.255,-0.032
3.256,-0.034
3.257,-0.034
3.258,-0.026
3.259,-0.031
3.26,-0.038
3.261,-0.041
3.262,-0.048
3.263,-0.042
3.264,-0.044
3.265,-0.053
3.266,-0.064
3.267,-0.065
3.268,-0.068
3.269,-0.083
3.27,-0.078
3.271,-0.08
3.272,-0.084
3.273,-0.097
3.274,-0.114
3.275,-0.104
3.276,-0.089
3.277,-0.07
3.278,-0.061
3.279,-0.059
3.28,-0.069
3.281,-0.071
3.282,-0.073
3.283,-0.09
3.284,-0.103
3.285,-0.092
3.286,-0.092
3.287,-0.088
3.288,-0.079
3.289,-0.059
3.29,-0.022
3.291,-0.074
3.292,-0.062
3.293,-0.069
3.294,-0.069
3.295,-0.058
3.296,-0.065
3.297,-0.057
3.298,-0.056
3.299,-0.041
3.3,-0.032
3.301,-0.023
3.302,-0.029
3.303,-0.027
3.304,-0.028
3.305,-0.037
3.306,-0.044
3.307,-0.036
3.308,-0.034
3.309,-0.034
3.31,-0.042
3.311,-0.059
3.312,-0.057
3.313,-0.054
3.314,-0.063
3.315,-0.062
3.316,-0.055
3.317,-0.045
3.318,-0.043
3.319,-0.03
3.32,-0.014
3.321,-0.028
3.322,-0.027
3.323,-0.011
3.324,-0.013
3.325,-0.013
3.326,-0.019
3.327,-0.01
3.328,0.002
3.329,0.001
3.33,0.01
3.331,0.016
3.332,0.014
3.333,-0.005
3.334,-0.004
3.335,-0.001
3.336,0.006
3.337,0.023
3.338,0.044
3.339,0.051
3.34,0.065
3.341,0.082
3.342,0.103
3.343,0.139
3.344,0.153
3.345,0.162
3.346,0.176
3.347,0.191
3.348,0.218
3.349,0.245
3.35,0.283
3.351,0.361
3.352,0.438
3.353,0.517
3.354,0.594
3.355,0.657
3.356,0.727
3.357,0.802
3.358,0.868
3.359,0.899
3.36,0.927
3.361,0.958
3.362,0.983
3.363,0.971
3.364,0.916
3.365,0.824
3.366,0.711
3.367,0.562
3.368,0.397
3.369,0.225
3.37,0.041
3.371,-0.153
3.372,-0.4
3.373,-0.694
3.374,-1.014
3.375,-1.255
3.376,-1.407
3.377,-1.494
3.378,-1.549
3.379,-1.577
3.38,-1.595
3.381,-1.578
3.382,-1.566
3.383,-1.526
3.384,-1.472
3.385,-1.429
3.386,-1.375
3.387,-1.34
3.388,-1.297
3.389,-1.214
3.39,-1.101
3.391,-0.993
3.392,-0.881
3.393,-0.769
3.394,-0.675
3.395,-0.606
3.396,-0.536
3.397,-0.458
3.398,-0.383
3.399,-0.317
3.4,-0.246
3.401,-0.176
3.402,-0.129
3.403,-0.088
3.404,-0.04
3.405,0.021
3.406,0.074
3.407,0.126
3.408,0.181
3.409,0.225
3.41,0.252
3.411,0.284
3.412,0.314
3.413,0.342
3.414,0.36
3.415,0.377
3.416,0.39
3.417,0.413
3.418,0.429
3.419,0.439
3.42,0.449
3.421,0.446
3.422,0.445
3.423,0.446
3.424,0.44
3.425,0.45
3.426,0.458
3.427,0.455
3.428,0.445
3.429,0.432
3.43,0.429
3.431,0.429
3.432,0.406
3.433,0.395
3.434,0.397
3.435,0.399
3.436,0.397
3.437,0.384
3.438,0.39
3.439,0.385
3.44,0.371
3.441,0.377
3.442,0.372
3.443,0.354
3.444,0.341
3.445,0.322
3.446,0.302
3.447,0.299
3.448,0.303
3.449,0.299
3.45,0.291
3.451,0.279
3.452,0.263
3.453,0.248
3.454,0.237
3.455,0.235
3.456,0.228
3.457,0.214
3.458,0.204
3.459,0.204
3.46,0.209
3.461,0.217
3.462,0.224
3.463,0.223
3.464,0.219
3.465,0.222
3.466,0.216
3.467,0.196
3.468,0.192
3.469,0.192
3.47,0.192
3.471,0.188
3.472,0.187
3.473,0.185
3.474,0.167
3.475,0.157
3.476,0.148
3.477,0.144
3.478,0.139
3.479,0.134
3.48,0.135
3.481,0.13
3.482,0.114
3.483,0.093
3.484,0.079
3.485,0.07
3.486,0.081
3.487,0.087
3.488,0.095
3.489,0.085
3.49,0.067
3.491,0.059
3.492,0.059
3.493,0.055
3.494,0.051
3.495,0.051
3.496,0.061
3.497,0.058
3.498,0.055
3.499,0.063
3.5,0.052
3.501,0.048
3.502,0.041
3.503,0.027
3.504,0.025
3.505,0.033
3.506,0.043
3.507,0.051
3.508,0.051
3.509,0.043
3.51,0.035
3.511,0.033
3.512,0.023
3.513,0.01
3.514,-0.002
3.515,-0.004
3.516,0.009
3.517,-0.004
3.518,-0.009
3.519,0.003
3.52,-0.009
3.521,-0.006
3.522,0
3.523,0.007
3.524,0.007
3.525,0.007
3.526,0.013
3.527,0.022
3.528,0.021
3.529,0.019
3.53,0.014
3.531,-0.005
3.532,-0.024
3.533,-0.031
3.534,-0.037
3.535,-0.055
3.536,-0.07
3.537,-0.074
3.538,-0.058
3.539,-0.041
3.54,-0.048
3.541,-0.049
3.542,-0.038
3.543,-0.049
3.544,-0.032
3.545,-0.023
3.546,-0.024
3.547,-0.018
3.548,-0.025
3.549,-0.011
3.55,0.009
3.551,0.011
3.552,0.02
3.553,0.026
3.554,0.009
3.555,0.005
3.556,0.02
3.557,0.036
3.558,0.038
3.559,0.03
3.56,0.033
3.561,0.025
3.562,0.023
3.563,0.012
3.564,0.001
3.565,-0.004
3.566,-0.009
3.567,-0.015
3.568,-0.009
3.569,-0.006
3.57,0.007
3.571,0.013
3.572,0.022
3.573,0.023
3.574,0.018
3.575,0.019
3.576,0.011
3.577,0.018
3.578,0.027
3.579,0.022
3.58,0.024
3.581,0.019
3.582,0.009
3.583,0.014
3.584,0.024
3.585,0.014
3.586,0.01
3.587,0.014
3.588,0.011
3.589,0.017
3.59,0.013
3.591,0.011
3.592,0.008
3.593,0.013
3.594,0.016
3.595,0.021
3.596,0.015
3.597,0.007
3.598,0.014
3.599,0.013
3.6,-0.002
3.601,0.004
3.602,-0.019
3.603,-0.042
3.604,-0.043
3.605,-0.037
3.606,-0.033
3.607,-0.019
3.608,-0.016
3.609,-0.027
3.61,-0.039
3.611,-0.046
3.612,-0.064
3.613,-0.071
3.614,-0.074
3.615,-0.07
3.616,-0.055
3.617,-0.048
3.618,-0.057
3.619,-0.052
3.62,-0.059
3.621,-0.058
3.622,-0.036
3.623,-0.026
3.624,-0.02
3.625,-0.027
3.626,-0.033
3.627,-0.04
3.628,-0.048
3.629,-0.065
3.63,-0.082
3.631,-0.086
3.632,-0.087
3.633,-0.104
3.634,-0.119
3.635,-0.135
3.636,-0.156
3.637,-0.171
3.638,-0.192
3.639,-0.198
3.64,-0.192
3.641,-0.202
3.642,-0.223
3.643,-0.229
3.644,-0.234
3.645,-0.242
3.646,-0.243
3.647,-0.241
3.648,-0.247
3.649,-0.26
3.65,-0.256
3.651,-0.245
3.652,-0.239
3.653,-0.192
3.654,-0.265
3.655,-0.243
3.656,-0.254
3.657,-0.255
3.658,-0.259
3.659,-0.262
3.66,-0.268
3.661,-0.272
3.662,-0.293
3.663,-0.298
3.664,-0.304
3.665,-0.313
3.666,-0.321
3.667,-0.32
3.668,-0.315
3.669,-0.311
3.67,-0.31
3.671,-0.313
3.672,-0.316
3.673,-0.314
3.674,-0.308
3.675,-0.298
3.676,-0.287
3.677,-0.281
3.678,-0.262
3.679,-0.263
3.68,-0.271
3.681,-0.272
3.682,-0.273
3.683,-0.274
3.684,-0.273
3.685,-0.281
3.686,-0.284
3.687,-0.288
3.688,-0.283
3.689,-0.279
3.69,-0.269
3.691,-0.258
3.692,-0.248
3.693,-0.231
3.694,-0.222
3.695,-0.215
3.696,-0.204
3.697,-0.199
3.698,-0.198
3.699,-0.183
3.7,-0.163
3.701,-0.151
3.702,-0.151
3.703,-0.143
3.704,-0.141
3.705,-0.136
3.706,-0.125
3.707,-0.116
3.708,-0.11
3.709,-0.102
3.71,-0.092
3.711,-0.084
3.712,-0.074
3.713,-0.058
3.714,-0.054
3.715,-0.048
3.716,-0.045
3.717,-0.051
3.718,-0.047
3.719,-0.035
3.72,-0.024
3.721,-0.025
3.722,-0.025
3.723,-0.023
3.724,-0.024
3.725,-0.022
3.726,-0.027
3.727,-0.035
3.728,-0.03
3.729,-0.015
3.73,-0.001
3.731,0.001
3.732,0.012
3.733,0.035
3.734,0.041
3.735,0.034
3.736,0.042
3.737,0.046
3.738,0.044
3.739,0.029
3.74,0.031
3.741,0.03
3.742,0.026
3.743,0.027
3.744,0.036
3.745,0.044
3.746,0.04
3.747,0.046
3.748,0.058
3.749,0.067
3.75,0.077
3.751,0.084
3.752,0.088
3.753,0.085
3.754,0.084
3.755,0.082
3.756,0.088
3.757,0.11
3.758,0.12
3.759,0.125
3.76,0.137
3.761,0.128
3.762,0.128
3.763,0.123
3.764,0.118
3.765,0.124
3.766,0.133
3.767,0.124
3.768,0.117
3.769,0.103
3.77,0.093
3.771,0.079
3.772,0.075
3.773,0.086
3.774,0.09
3.775,0.084
3.776,0.097
3.777,0.1
3.778,0.109
3.779,0.116
3.78,0.124
3.781,0.118
3.782,0.125
3.783,0.132
3.784,0.129
3.785,0.135
3.786,0.146
3.787,0.14
3.788,0.14
3.789,0.136
3.79,0.137
3.791,0.128
3.792,0.115
3.793,0.11
3.794,0.102
3.795,0.1
3.796,0.096
3.797,0.103
3.798,0.095
3.799,0.081
3.8,0.087
3.801,0.099
3.802,0.107
3.803,0.106
3.804,0.095
3.805,0.093
3.806,0.105
3.807,0.092
3.808,0.077
3.809,0.087
3.81,0.095
3.811,0.105
3.812,0.105
3.813,0.1
3.814,0.095
3.815,0.098
3.816,0.102
3.817,0.1
3.818,0.094
3.819,0.088
3.82,0.078
3.821,0.074
3.822,0.08
3.823,0.085
3.824,0.087
3.825,0.086
3.826,0.087
3.827,0.073
3.828,0.067
3.829,0.065
3.83,0.069
3.831,0.058
3.832,0.062
3.833,0.055
3.834,0.05
3.835,0.063
3.836,0.073
3.837,0.057
3.838,0.036
3.839,0.025
3.84,0.018
3.841,0.028
3.842,0.039
3.843,0.043
3.844,0.056
3.845,0.047
3.846,0.036
3.847,0.022
3.848,0.029
3.849,0.049
3.85,0.062
3.851,0.063
3.852,0.07
3.853,0.075
3.854,0.074
3.855,0.078
3.856,0.074
3.857,0.068
3.858,0.062
3.859,0.062
3.86,0.061
3.861,0.066
3.862,0.066
3.863,0.066
3.864,0.063
3.865,0.057
3.866,0.045
3.867,0.043
3.868,0.041
3.869,0.04
3.87,0.04
3.871,0.051
3.872,0.063
3.873,0.054
3.874,0.047
3.875,0.046
3.876,0.05
3.877,0.05
3.878,0.045
3.879,0.047
3.88,0.038
3.881,0.038
3.882,0.04
3.883,0.037
3.884,0.039
3.885,0.037
3.886,0.025
3.887,0.023
3.888,0.013
3.889,0.014
3.89,0.019
3.891,0.007
3.892,0.002
3.893,0
3.894,0.011
3.895,0.018
3.896,0.012
3.897,0.018
3.898,0.029
3.899,0.044
3.9,0.043
3.901,0.033
3.902,0.03
3.903,0.042
3.904,0.045
3.905,0.062
3.906,0.076
3.907,0.081
3.908,0.072
3.909,0.069
3.91,0.067
3.911,0.054
3.912,0.039
3.913,0.035
3.914,0.043
3.915,0.047
3.916,0.056
3.917,0.062
3.918,0.064
3.919,0.063
3.92,0.055
3.921,0.043
3.922,0.035
3.923,0.028
3.924,0.026
3.925,0.021
3.926,0.022
3.927,0.024
3.928,0.032
3.929,0.022
3.93,0.004
3.931,-0.011
3.932,-0.013
3.933,-0.02
3.934,-0.021
3.935,-0.002
3.936,0.016
3.937,0.039
3.938,0.068
3.939,0.089
3.94,0.081
3.941,0.078
3.942,0.076
3.943,0.077
3.944,0.081
3.945,0.083
3.946,0.096
3.947,0.11
3.948,0.11
3.949,0.088
3.95,0.073
3.951,0.05
3.952,0.025
3.953,0.01
3.954,0.007
3.955,0.002
3.956,-0.009
3.957,-0.019
3.958,-0.026
3.959,-0.032
3.96,-0.039
3.961,-0.05
3.962,-0.062
3.963,-0.061
3.964,-0.07
3.965,-0.067
3.966,-0.064
3.967,-0.057
3.968,-0.047
3.969,-0.041
3.97,-0.044
3.971,-0.029
3.972,-0.021
3.973,-0.025
3.974,-0.04
3.975,-0.049
3.976,-0.058
3.977,-0.05
3.978,-0.053
3.979,-0.047
3.98,-0.042
3.981,-0.044
3.982,-0.045
3.983,-0.044
3.984,-0.05
3.985,-0.052
3.986,-0.053
3.987,-0.065
3.988,-0.083
3.989,-0.089
3.99,-0.07
3.991,-0.078
3.992,-0.079
3.993,-0.065
3.994,-0.068
3.995,-0.072
3.996,-0.067
3.997,-0.066
3.998,-0.073
3.999,-0.077
4,-0.076
4.001,-0.063
4.002,-0.056
4.003,-0.054
4.004,-0.059
4.005,-0.074
4.006,-0.083
4.007,-0.095
4.008,-0.094
4.009,-0.084
4.01,-0.073
4.011,-0.055
4.012,-0.054
4.013,-0.07
4.014,-0.064
4.015,-0.051
4.016,-0.003
4.017,-0.09
4.018,-0.034
4.019,-0.02
4.02,-0.015
4.021,-0.017
4.022,-0.008
4.023,-0.006
4.024,-0.016
4.025,-0.023
4.026,-0.022
4.027,-0.008
4.028,0.006
4.029,0.008
4.03,-0.001
4.031,0.001
4.032,0.003
4.033,0.006
4.034,0.006
4.035,0.005
4.036,0.006
4.037,0.005
4.038,0.003
4.039,-0.012
4.04,-0.02
4.041,-0.009
4.042,0.008
4.043,0.013
4.044,0.018
4.045,0.051
4.046,0.06
4.047,0.075
4.048,0.073
4.049,0.069
4.05,0.086
4.051,0.112
4.052,0.141
4.053,0.166
4.054,0.19
4.055,0.222
4.056,0.253
4.057,0.298
4.058,0.352
4.059,0.432
4.06,0.523
4.061,0.598
4.062,0.686
4.063,0.761
4.064,0.815
4.065,0.86
4.066,0.887
4.067,0.906
4.068,0.928
4.069,0.949
4.07,0.933
4.071,0.894
4.072,0.815
4.073,0.69
4.074,0.539
4.075,0.361
4.076,0.182
4.077,-0.014
4.078,-0.212
4.079,-0.451
4.08,-0.727
4.081,-1.056
4.082,-1.289
4.083,-1.448
4.084,-1.536
4.085,-1.589
4.086,-1.613
4.087,-1.6
4.088,-1.581
4.089,-1.564
4.09,-1.528
4.091,-1.491
4.092,-1.454
4.093,-1.396
4.094,-1.306
4.095,-1.21
4.096,-1.149
4.097,-1.054
4.098,-0.955
4.099,-0.848
4.1,-0.756
4.101,-0.679
4.102,-0.598
4.103,-0.523
4.104,-0.443
4.105,-0.36
4.106,-0.293
4.107,-0.238
4.108,-0.178
4.109,-0.109
4.11,-0.029
4.111,0.017
4.112,0.082
4.113,0.142
4.114,0.2
4.115,0.239
4.116,0.271
4.117,0.287
4.118,0.321
4.119,0.356
4.12,0.38
4.121,0.398
4.122,0.419
4.123,0.441
4.124,0.454
4.125,0.461
4.126,0.465
4.127,0.47
4.128,0.474
4.129,0.467
4.13,0.471
4.131,0.464
4.132,0.458
4.133,0.448
4.134,0.437
4.135,0.435
4.136,0.429
4.137,0.415
4.138,0.403
4.139,0.4
4.14,0.402
4.141,0.385
4.142,0.376
4.143,0.386
4.144,0.386
4.145,0.383
4.146,0.378
4.147,0.371
4.148,0.368
4.149,0.353
4.15,0.336
4.151,0.318
4.152,0.301
4.153,0.296
4.154,0.298
4.155,0.295
4.156,0.295
4.157,0.294
4.158,0.28
4.159,0.274
4.16,0.268
4.161,0.26
4.162,0.258
4.163,0.239
4.164,0.234
4.165,0.223
4.166,0.212
4.167,0.203
4.168,0.198
4.169,0.208
4.17,0.206
4.171,0.205
4.172,0.201
4.173,0.204
4.174,0.183
4.175,0.165
4.176,0.158
4.177,0.147
4.178,0.144
4.179,0.147
4.18,0.151
4.181,0.154
4.182,0.152
4.183,0.146
4.184,0.135
4.185,0.13
4.186,0.13
4.187,0.121
4.188,0.104
4.189,0.099
4.19,0.095
4.191,0.084
4.192,0.084
4.193,0.082
4.194,0.077
4.195,0.082
4.196,0.071
4.197,0.071
4.198,0.074
4.199,0.054
4.2,0.049
4.201,0.041
4.202,0.038
4.203,0.042
4.204,0.045
4.205,0.059
4.206,0.056
4.207,0.051
4.208,0.054
4.209,0.054
4.21,0.053
4.211,0.041
4.212,0.03
4.213,0.021
4.214,0.02
4.215,0.017
4.216,0.023
4.217,0.031
4.218,0.025
4.219,0.015
4.22,0.003
4.221,-0.011
4.222,-0.009
4.223,-0.011
4.224,-0.015
4.225,-0.011
4.226,-0.02
4.227,-0.022
4.228,-0.015
4.229,-0.012
4.23,-0.006
4.231,0.016
4.232,0.016
4.233,0.013
4.234,0.022
4.235,0.034
4.236,0.03
4.237,0.012
4.238,0.006
4.239,0.006
4.24,0.004
4.241,-0.007
4.242,-0.012
4.243,-0.014
4.244,-0.017
4.245,-0.021
4.246,-0.026
4.247,-0.019
4.248,-0.017
4.249,-0.016
4.25,-0.014
4.251,-0.01
4.252,-0.015
4.253,-0.016
4.254,0.001
4.255,0.01
4.256,0.015
4.257,0.009
4.258,0.01
4.259,-0.002
4.26,-0.002
4.261,0
4.262,-0.008
4.263,-0.018
4.264,-0.023
4.265,-0.029
4.266,-0.023
4.267,-0.014
4.268,-0.013
4.269,-0.016
4.27,-0.027
4.271,-0.019
4.272,0.001
4.273,0.011
4.274,0.001
4.275,-0.001
4.276,0.009
4.277,0.017
4.278,0.018
4.279,0.022
4.28,0.023
4.281,0.016
4.282,0.011
4.283,0.016
4.284,0.014
4.285,0
4.286,0.007
4.287,0.019
4.288,0.03
4.289,0.034
4.29,0.043
4.291,0.038
4.292,0.029
4.293,0.025
4.294,0.021
4.295,0.018
4.296,0.017
4.297,0.009
4.298,-0.01
4.299,-0.032
4.3,-0.041
4.301,-0.037
4.302,-0.044
4.303,-0.041
4.304,-0.049
4.305,-0.054
4.306,-0.048
4.307,-0.026
4.308,0.005
4.309,0.014
4.31,0.014
4.311,0.012
4.312,0
4.313,-0.006
4.314,-0.005
4.315,-0.002
4.316,-0.008
4.317,-0.012
4.318,-0.01
4.319,-0.027
4.32,-0.037
4.321,-0.03
4.322,-0.027
4.323,-0.033
4.324,-0.034
4.325,-0.048
4.326,-0.061
4.327,-0.066
4.328,-0.071
4.329,-0.072
4.33,-0.077
4.331,-0.075
4.332,-0.087
4.333,-0.1
4.334,-0.097
4.335,-0.108
4.336,-0.108
4.337,-0.116
4.338,-0.118
4.339,-0.116
4.34,-0.111
4.341,-0.11
4.342,-0.127
4.343,-0.152
4.344,-0.168
4.345,-0.185
4.346,-0.192
4.347,-0.178
4.348,-0.183
4.349,-0.199
4.35,-0.209
4.351,-0.204
4.352,-0.193
4.353,-0.2
4.354,-0.2
4.355,-0.189
4.356,-0.195
4.357,-0.219
4.358,-0.233
4.359,-0.245
4.36,-0.25
4.361,-0.258
4.362,-0.274
4.363,-0.28
4.364,-0.288
4.365,-0.296
4.366,-0.291
4.367,-0.297
4.368,-0.298
4.369,-0.292
4.37,-0.3
4.371,-0.316
4.372,-0.321
4.373,-0.322
4.374,-0.322
4.375,-0.309
4.376,-0.294
4.377,-0.29
4.378,-0.294
4.379,-0.254
4.38,-0.368
4.381,-0.326
4.382,-0.341
4.383,-0.333
4.384,-0.328
4.385,-0.326
4.386,-0.31
4.387,-0.292
4.388,-0.286
4.389,-0.27
4.39,-0.25
4.391,-0.26
4.392,-0.27
4.393,-0.265
4.394,-0.255
4.395,-0.246
4.396,-0.245
4.397,-0.237
4.398,-0.237
4.399,-0.235
4.4,-0.226
4.401,-0.209
4.402,-0.19
4.403,-0.183
4.404,-0.177
4.405,-0.165
4.406,-0.152
4.407,-0.139
4.408,-0.131
4.409,-0.131
4.41,-0.12
4.411,-0.111
4.412,-0.113
4.413,-0.104
4.414,-0.101
4.415,-0.104
4.416,-0.1
4.417,-0.087
4.418,-0.078
4.419,-0.061
4.42,-0.047
4.421,-0.043
4.422,-0.042
4.423,-0.032
4.424,-0.028
4.425,-0.021
4.426,-0.02
4.427,-0.027
4.428,-0.034
4.429,-0.039
4.43,-0.045
4.431,-0.037
4.432,-0.02
4.433,0.005
4.434,0.011
4.435,0.013
4.436,0.015
4.437,0.022
4.438,0.021
4.439,0.019
4.44,0.027
4.441,0.037
4.442,0.039
4.443,0.044
4.444,0.052
4.445,0.035
4.446,0.029
4.447,0.043
4.448,0.052
4.449,0.056
4.45,0.061
4.451,0.063
4.452,0.072
4.453,0.064
4.454,0.066
4.455,0.076
4.456,0.08
4.457,0.075
4.458,0.07
4.459,0.068
4.46,0.081
4.461,0.078
4.462,0.078
4.463,0.083
4.464,0.088
4.465,0.084
4.466,0.082
4.467,0.084
4.468,0.077
4.469,0.079
4.47,0.068
4.471,0.068
4.472,0.074
4.473,0.082
4.474,0.075
4.475,0.073
4.476,0.078
4.477,0.083
4.478,0.104
4.479,0.101
4.48,0.102
4.481,0.095
4.482,0.095
4.483,0.101
4.484,0.107
4.485,0.11
4.486,0.105
4.487,0.101
4.488,0.107
4.489,0.111
4.49,0.106
4.491,0.102
4.492,0.097
4.493,0.096
4.494,0.102
4.495,0.095
4.496,0.095
4.497,0.104
4.498,0.104
4.499,0.104
4.5,0.115
4.501,0.113
4.502,0.103
4.503,0.11
4.504,0.12
4.505,0.131
4.506,0.128
4.507,0.123
4.508,0.126
4.509,0.119
4.51,0.106
4.511,0.113
4.512,0.107
4.513,0.099
4.514,0.105
4.515,0.109
4.516,0.113
4.517,0.112
4.518,0.112
4.519,0.11
4.52,0.106
4.521,0.098
4.522,0.088
4.523,0.092
4.524,0.1
4.525,0.102
4.526,0.103
4.527,0.102
4.528,0.1
4.529,0.087
4.53,0.058
4.531,0.051
4.532,0.047
4.533,0.054
4.534,0.055
4.535,0.059
4.536,0.065
4.537,0.068
4.538,0.082
4.539,0.098
4.54,0.092
4.541,0.093
4.542,0.095
4.543,0.087
4.544,0.078
4.545,0.073
4.546,0.073
4.547,0.081
4.548,0.081
4.549,0.074
4.55,0.061
4.551,0.061
4.552,0.065
4.553,0.053
4.554,0.042
4.555,0.033
4.556,0.031
4.557,0.035
4.558,0.043
4.559,0.041
4.56,0.043
4.561,0.051
4.562,0.054
4.563,0.055
4.564,0.056
4.565,0.05
4.566,0.047
4.567,0.036
4.568,0.037
4.569,0.041
4.57,0.026
4.571,0.015
4.572,0.016
4.573,0.02
4.574,0.028
4.575,0.037
4.576,0.029
4.577,0.035
4.578,0.038
4.579,0.024
4.58,0.015
4.581,0.014
4.582,0.009
4.583,0.02
4.584,0.035
4.585,0.042
4.586,0.029
4.587,0.04
4.588,0.063
4.589,0.071
4.59,0.077
4.591,0.071
4.592,0.068
4.593,0.064
4.594,0.053
4.595,0.047
4.596,0.054
4.597,0.048
4.598,0.053
4.599,0.063
4.6,0.052
4.601,0.048
4.602,0.048
4.603,0.034
4.604,0.024
4.605,0.016
4.606,0.01
4.607,0.015
4.608,0.024
4.609,0.024
4.61,0.01
4.611,0.012
4.612,0.026
4.613,0.03
4.614,0.039
4.615,0.046
4.616,0.059
4.617,0.063
4.618,0.068
4.619,0.078
4.62,0.071
4.621,0.059
4.622,0.059
4.623,0.057
4.624,0.055
4.625,0.059
4.626,0.052
4.627,0.05
4.628,0.048
4.629,0.041
4.63,0.038
4.631,0.037
4.632,0.027
4.633,0.023
4.634,0.025
4.635,0.021
4.636,0.026
4.637,0.028
4.638,0.027
4.639,0.017
4.64,0.013
4.641,-0.003
4.642,-0.016
4.643,0
4.644,0.025
4.645,0.052
4.646,0.064
4.647,0.07
4.648,0.079
4.649,0.071
4.65,0.072
4.651,0.064
4.652,0.072
4.653,0.087
4.654,0.088
4.655,0.091
4.656,0.081
4.657,0.062
4.658,0.052
4.659,0.034
4.66,0.017
4.661,0.014
4.662,-0.001
4.663,-0.018
4.664,-0.031
4.665,-0.04
4.666,-0.043
4.667,-0.04
4.668,-0.04
4.669,-0.03
4.67,-0.029
4.671,-0.033
4.672,-0.047
4.673,-0.042
4.674,-0.044
4.675,-0.051
4.676,-0.05
4.677,-0.058
4.678,-0.057
4.679,-0.058
4.68,-0.068
4.681,-0.075
4.682,-0.075
4.683,-0.071
4.684,-0.068
4.685,-0.065
4.686,-0.064
4.687,-0.066
4.688,-0.072
4.689,-0.074
4.69,-0.068
4.691,-0.071
4.692,-0.088
4.693,-0.091
4.694,-0.083
4.695,-0.079
4.696,-0.077
4.697,-0.084
4.698,-0.08
4.699,-0.081
4.7,-0.078
4.701,-0.07
4.702,-0.068
4.703,-0.064
4.704,-0.063
4.705,-0.058
4.706,-0.066
4.707,-0.064
4.708,-0.07
4.709,-0.074
4.71,-0.061
4.711,-0.049
4.712,-0.04
4.713,-0.033
4.714,-0.023
4.715,-0.026
4.716,-0.036
4.717,-0.041
4.718,-0.039
4.719,-0.041
4.72,-0.037
4.721,-0.044
4.722,-0.053
4.723,-0.064
4.724,-0.076
4.725,-0.072
4.726,-0.072
4.727,-0.072
4.728,-0.06
4.729,-0.06
4.73,-0.044
4.731,-0.022
4.732,-0.013
4.733,-0.012
4.734,0.001
4.735,0.01
4.736,0.015
4.737,0.019
4.738,0.019
4.739,0.013
4.74,0.016
4.741,0.012
4.742,0.045
4.743,-0.057
4.744,-0.017
4.745,-0.027
4.746,-0.03
4.747,-0.034
4.748,-0.029
4.749,-0.024
4.75,-0.018
4.751,-0.001
4.752,0.014
4.753,0.043
4.754,0.069
4.755,0.068
4.756,0.089
4.757,0.111
4.758,0.134
4.759,0.164
4.76,0.179
4.761,0.21
4.762,0.237
4.763,0.276
4.764,0.364
4.765,0.453
4.766,0.534
4.767,0.605
4.768,0.682
4.769,0.774
4.77,0.828
4.771,0.853
4.772,0.876
4.773,0.889
4.774,0.91
4.775,0.92
4.776,0.912
4.777,0.875
4.778,0.812
4.779,0.708
4.78,0.565
4.781,0.401
4.782,0.206
4.783,-0.009
4.784,-0.201
4.785,-0.423
4.786,-0.664
4.787,-0.993
4.788,-1.267
4.789,-1.423
4.79,-1.52
4.791,-1.57
4.792,-1.594
4.793,-1.591
4.794,-1.568
4.795,-1.534
4.796,-1.499
4.797,-1.456
4.798,-1.409
4.799,-1.374
4.8,-1.32
4.801,-1.252
4.802,-1.178
4.803,-1.077
4.804,-0.979
4.805,-0.865
4.806,-0.762
4.807,-0.672
4.808,-0.575
4.809,-0.494
4.81,-0.422
4.811,-0.342
4.812,-0.281
4.813,-0.232
4.814,-0.191
4.815,-0.118
4.816,-0.041
4.817,0.01
4.818,0.077
4.819,0.156
4.82,0.219
4.821,0.256
4.822,0.273
4.823,0.303
4.824,0.344
4.825,0.38
4.826,0.408
4.827,0.426
4.828,0.431
4.829,0.43
4.83,0.444
4.831,0.447
4.832,0.438
4.833,0.435
4.834,0.431
4.835,0.431
4.836,0.435
4.837,0.422
4.838,0.405
4.839,0.409
4.84,0.422
4.841,0.438
4.842,0.426
4.843,0.402
4.844,0.385
4.845,0.385
4.846,0.375
4.847,0.378
4.848,0.376
4.849,0.389
4.85,0.388
4.851,0.371
4.852,0.359
4.853,0.352
4.854,0.356
4.855,0.352
4.856,0.362
4.857,0.363
4.858,0.369
4.859,0.358
4.86,0.338
4.861,0.332
4.862,0.32
4.863,0.312
4.864,0.302
4.865,0.288
4.866,0.282
4.867,0.267
4.868,0.259
4.869,0.247
4.87,0.237
4.871,0.225
4.872,0.217
4.873,0.215
4.874,0.22
4.875,0.209
4.876,0.195
4.877,0.186
4.878,0.184
4.879,0.194
4.88,0.192
4.881,0.181
4.882,0.175
4.883,0.17
4.884,0.172
4.885,0.175
4.886,0.175
4.887,0.18
4.888,0.175
4.889,0.165
4.89,0.155
4.891,0.136
4.892,0.117
4.893,0.118
4.894,0.111
4.895,0.098
4.896,0.079
4.897,0.065
4.898,0.066
4.899,0.073
4.9,0.077
4.901,0.074
4.902,0.072
4.903,0.068
4.904,0.077
4.905,0.094
4.906,0.088
4.907,0.085
4.908,0.074
4.909,0.051
4.91,0.03
4.911,0.003
4.912,-0.005
4.913,-0.015
4.914,-0.02
4.915,-0.017
4.916,-0.021
4.917,-0.006
4.918,0.011
4.919,0
4.92,-0.019
4.921,0.001
4.922,0.015
4.923,0.011
4.924,0.009
4.925,0.015
4.926,0.023
4.927,0.023
4.928,0.023
4.929,0.031
4.93,0.01
4.931,-0.009
4.932,-0.004
4.933,0.007
4.934,0.027
4.935,0.028
4.936,0.022
4.937,0.014
4.938,0.016
4.939,0.015
4.94,0.019
4.941,0.016
4.942,0.008
4.943,0.008
4.944,0.027
4.945,0.03
4.946,0.024
4.947,0.019
4.948,0.021
4.949,0.013
4.95,0.005
4.951,0.007
4.952,0.008
4.953,0.005
4.954,0
4.955,-0.016
4.956,-0.028
4.957,-0.029
4.958,-0.026
4.959,-0.032
4.96,-0.028
4.961,-0.033
4.962,-0.04
4.963,-0.045
4.964,-0.044
4.965,-0.04
4.966,-0.043
4.967,-0.037
4.968,-0.024
4.969,-0.01
4.97,-0.005
4.971,-0.006
4.972,-0.015
4.973,-0.023
4.974,-0.021
4.975,-0.03
4.976,-0.033
4.977,-0.03
4.978,-0.016
4.979,0
4.98,-0.002
4.981,0.006
4.982,0.019
4.983,0.025
4.984,0.025
4.985,0.019
4.986,0.012
4.987,0.013
4.988,0.014
4.989,0.015
4.99,0.015
4.991,0.026
4.992,0.033
4.993,0.022
4.994,0.019
4.995,0.024
4.996,0.013
4.997,0.001
4.998,-0.005
4.999,-0.002
5,0.005
5.001,0.003
5.002,0.007
5.003,0.011
5.004,0.01
5.005,0.025
5.006,0.033
5.007,0.035
5.008,0.037
5.009,0.028
5.01,0.018
5.011,0.016
5.012,0.022
5.013,0.024
5.014,0.025
5.015,0.022
5.016,0.007
5.017,-0.009
5.018,-0.019
5.019,-0.019
5.02,-0.034
5.021,-0.033
5.022,-0.029
5.023,-0.039
5.024,-0.045
5.025,-0.041
5.026,-0.032
5.027,-0.032
5.028,-0.042
5.029,-0.061
5.03,-0.067
5.031,-0.069
5.032,-0.075
5.033,-0.075
5.034,-0.085
5.035,-0.094
5.036,-0.095
5.037,-0.094
5.038,-0.096
5.039,-0.1
5.04,-0.111
5.041,-0.122
5.042,-0.129
5.043,-0.119
5.044,-0.117
5.045,-0.129
5.046,-0.126
5.047,-0.134
5.048,-0.155
5.049,-0.166
5.05,-0.186
5.051,-0.209
5.052,-0.205
5.053,-0.201
5.054,-0.191
5.055,-0.189
5.056,-0.188
5.057,-0.192
5.058,-0.186
5.059,-0.188
5.06,-0.198
5.061,-0.203
5.062,-0.211
5.063,-0.227
5.064,-0.249
5.065,-0.256
5.066,-0.263
5.067,-0.263
5.068,-0.274
5.069,-0.292
5.07,-0.303
5.071,-0.314
5.072,-0.314
5.073,-0.308
5.074,-0.303
5.075,-0.301
5.076,-0.297
5.077,-0.299
5.078,-0.308
5.079,-0.296
5.08,-0.289
5.081,-0.275
5.082,-0.285
5.083,-0.299
5.084,-0.301
5.085,-0.305
5.086,-0.302
5.087,-0.303
5.088,-0.299
5.089,-0.302
5.09,-0.295
5.091,-0.284
5.092,-0.268
5.093,-0.264
5.094,-0.262
5.095,-0.26
5.096,-0.257
5.097,-0.258
5.098,-0.264
5.099,-0.255
5.1,-0.243
5.101,-0.23
5.102,-0.211
5.103,-0.198
5.104,-0.188
5.105,-0.132
5.106,-0.23
5.107,-0.195
5.108,-0.208
5.109,-0.208
5.11,-0.203
5.111,-0.206
5.112,-0.213
5.113,-0.219
5.114,-0.219
5.115,-0.214
5.116,-0.199
5.117,-0.181
5.118,-0.147
5.119,-0.128
5.12,-0.116
5.121,-0.089
5.122,-0.073
5.123,-0.066
5.124,-0.049
5.125,-0.054
5.126,-0.05
5.127,-0.045
5.128,-0.019
5.129,-0.013
5.13,-0.01
5.131,-0.017
5.132,-0.025
5.133,-0.029
5.134,-0.021
5.135,-0.011
5.136,-0.003
5.137,0.012
5.138,0.018
5.139,0
5.14,-0.01
5.141,-0.019
5.142,-0.022
5.143,-0.018
5.144,-0.02
5.145,-0.017
5.146,-0.011
5.147,-0.008
5.148,0.016
5.149,0.038
5.15,0.047
5.151,0.044
5.152,0.049
5.153,0.056
5.154,0.059
5.155,0.067
5.156,0.073
5.157,0.078
5.158,0.097
5.159,0.104
5.16,0.089
5.161,0.095
5.162,0.095
5.163,0.085
5.164,0.089
5.165,0.093
5.166,0.097
5.167,0.093
5.168,0.094
5.169,0.092
5.17,0.093
5.171,0.085
5.172,0.08
5.173,0.086
5.174,0.096
5.175,0.095
5.176,0.092
5.177,0.093
5.178,0.087
5.179,0.087
5.18,0.101
5.181,0.109
5.182,0.114
5.183,0.113
5.184,0.113
5.185,0.11
5.186,0.113
5.187,0.124
5.188,0.119
5.189,0.119
5.19,0.12
5.191,0.113
5.192,0.109
5.193,0.099
5.194,0.09
5.195,0.09
5.196,0.081
5.197,0.069
5.198,0.068
5.199,0.071
5.2,0.068
5.201,0.066
5.202,0.058
5.203,0.053
5.204,0.065
5.205,0.073
5.206,0.07
5.207,0.068
5.208,0.09
5.209,0.111
5.21,0.096
5.211,0.074
5.212,0.071
5.213,0.084
5.214,0.085
5.215,0.091
5.216,0.107
5.217,0.108
5.218,0.113
5.219,0.128
5.22,0.143
5.221,0.148
5.222,0.158
5.223,0.158
5.224,0.135
5.225,0.114
5.226,0.114
5.227,0.118
5.228,0.116
5.229,0.12
5.23,0.112
5.231,0.099
5.232,0.103
5.233,0.119
5.234,0.107
5.235,0.099
5.236,0.099
5.237,0.092
5.238,0.094
5.239,0.089
5.24,0.08
5.241,0.074
5.242,0.069
5.243,0.074
5.244,0.085
5.245,0.087
5.246,0.08
5.247,0.082
5.248,0.073
5.249,0.073
5.25,0.067
5.251,0.064
5.252,0.067
5.253,0.069
5.254,0.067
5.255,0.059
5.256,0.054
5.257,0.049
5.258,0.033
5.259,0.031
5.26,0.031
5.261,0.029
5.262,0.023
5.263,0.023
5.264,0.025
5.265,0.017
5.266,0.01
5.267,0.023
5.268,0.031
5.269,0.04
5.27,0.034
5.271,0.027
5.272,0.041
5.273,0.054
5.274,0.06
5.275,0.056
5.276,0.058
5.277,0.046
5.278,0.033
5.279,0.025
5.28,0.032
5.281,0.033
5.282,0.029
5.283,0.037
5.284,0.031
5.285,0.014
5.286,0.013
5.287,0.008
5.288,0.013
5.289,0.005
5.29,-0.013
5.291,-0.01
5.292,0.004
5.293,0.004
5.294,0.012
5.295,0.016
5.296,0.036
5.297,0.027
5.298,0.036
5.299,0.058
5.3,0.081
5.301,0.09
5.302,0.082
5.303,0.074
5.304,0.078
5.305,0.068
5.306,0.055
5.307,0.052
5.308,0.052
5.309,0.046
5.31,0.035
5.311,0.023
5.312,0.026
5.313,0.036
5.314,0.044
5.315,0.053
5.316,0.04
5.317,0.032
5.318,0.038
5.319,0.042
5.32,0.035
5.321,0.027
5.322,0.03
5.323,0.035
5.324,0.038
5.325,0.025
5.326,0.012
5.327,0.018
5.328,0.022
5.329,0.023
5.33,0.019
5.331,0.028
5.332,0.027
5.333,0.02
5.334,0.014
5.335,0.018
5.336,0.02
5.337,0.014
5.338,0.014
5.339,0.022
5.34,0.022
5.341,0.021
5.342,0.022
5.343,0.007
5.344,-0.004
5.345,0.005
5.346,0.008
5.347,0.012
5.348,0.019
5.349,0.023
5.35,0.019
5.351,0.013
5.352,0.04
5.353,0.064
5.354,0.064
5.355,0.053
5.356,0.047
5.357,0.054
5.358,0.053
5.359,0.03
5.36,0.022
5.361,0.018
5.362,0.015
5.363,0.017
5.364,0.023
5.365,0.01
5.366,0.003
5.367,0.012
5.368,0.016
5.369,0.004
5.37,0.002
5.371,0.001
5.372,0.004
5.373,0.007
5.374,0.018
5.375,0.037
5.376,0.049
5.377,0.066
5.378,0.084
5.379,0.094
5.38,0.085
5.381,0.079
5.382,0.075
5.383,0.061
5.384,0.062
5.385,0.05
5.386,0.05
5.387,0.053
5.388,0.05
5.389,0.036
5.39,0.021
5.391,0.017
5.392,0.035
5.393,0.049
5.394,0.036
5.395,0.01
5.396,-0.006
5.397,-0.02
5.398,-0.037
5.399,-0.039
5.4,-0.039
5.401,-0.04
5.402,-0.045
5.403,-0.044
5.404,-0.035
5.405,-0.012
5.406,-0.006
5.407,-0.007
5.408,-0.014
5.409,-0.021
5.41,-0.017
5.411,-0.024
5.412,-0.037
5.413,-0.042
5.414,-0.046
5.415,-0.056
5.416,-0.053
5.417,-0.056
5.418,-0.063
5.419,-0.061
5.42,-0.066
5.421,-0.056
5.422,-0.048
5.423,-0.042
5.424,-0.063
5.425,-0.087
5.426,-0.101
5.427,-0.11
5.428,-0.117
5.429,-0.123
5.43,-0.118
5.431,-0.11
5.432,-0.109
5.433,-0.106
5.434,-0.081
5.435,-0.054
5.436,-0.053
5.437,-0.066
5.438,-0.085
5.439,-0.096
5.44,-0.084
5.441,-0.081
5.442,-0.087
5.443,-0.08
5.444,-0.069
5.445,-0.077
5.446,-0.076
5.447,-0.079
5.448,-0.089
5.449,-0.086
5.45,-0.081
5.451,-0.074
5.452,-0.056
5.453,-0.051
5.454,-0.044
5.455,-0.039
5.456,-0.042
5.457,-0.052
5.458,-0.051
5.459,-0.052
5.46,-0.049
5.461,-0.041
5.462,-0.04
5.463,-0.036
5.464,-0.027
5.465,-0.02
5.466,-0.02
5.467,-0.015
5.468,0.025
5.469,-0.039
5.47,-0.02
5.471,-0.022
5.472,-0.008
5.473,0.005
5.474,0
5.475,0
5.476,-0.002
5.477,-0.008
5.478,-0.009
5.479,0
5.48,0.017
5.481,0.039
5.482,0.049
5.483,0.064
5.484,0.086
5.485,0.076
5.486,0.062
5.487,0.072
5.488,0.084
5.489,0.097
5.49,0.116
5.491,0.133
5.492,0.152
5.493,0.173
5.494,0.209
5.495,0.248
5.496,0.309
5.497,0.369
5.498,0.436
5.499,0.515
5.5,0.585
5.501,0.666
5.502,0.755
5.503,0.811
5.504,0.836
5.505,0.848
5.506,0.877
5.507,0.903
5.508,0.925
5.509,0.921
5.51,0.897
5.511,0.812
5.512,0.686
5.513,0.54
5.514,0.375
5.515,0.166
5.516,-0.046
5.517,-0.237
5.518,-0.464
5.519,-0.723
5.52,-1.045
5.521,-1.289
5.522,-1.438
5.523,-1.515
5.524,-1.561
5.525,-1.58
5.526,-1.578
5.527,-1.566
5.528,-1.542
5.529,-1.5
5.53,-1.47
5.531,-1.447
5.532,-1.391
5.533,-1.307
5.534,-1.22
5.535,-1.148
5.536,-1.041
5.537,-0.923
5.538,-0.822
5.539,-0.732
5.54,-0.646
5.541,-0.551
5.542,-0.466
5.543,-0.382
5.544,-0.316
5.545,-0.248
5.546,-0.189
5.547,-0.154
5.548,-0.096
5.549,-0.024
5.55,0.016
5.551,0.077
5.552,0.155
5.553,0.215
5.554,0.248
5.555,0.281
5.556,0.312
5.557,0.334
5.558,0.35
5.559,0.373
5.56,0.384
5.561,0.402
5.562,0.415
5.563,0.429
5.564,0.437
5.565,0.422
5.566,0.429
5.567,0.422
5.568,0.423
5.569,0.433
5.57,0.432
5.571,0.408
5.572,0.396
5.573,0.387
5.574,0.383
5.575,0.389
5.576,0.394
5.577,0.383
5.578,0.387
5.579,0.408
5.58,0.417
5.581,0.42
5.582,0.405
5.583,0.402
5.584,0.393
5.585,0.383
5.586,0.373
5.587,0.367
5.588,0.354
5.589,0.342
5.59,0.334
5.591,0.344
5.592,0.342
5.593,0.326
5.594,0.305
5.595,0.289
5.596,0.276
5.597,0.272
5.598,0.273
5.599,0.261
5.6,0.246
5.601,0.242
5.602,0.227
5.603,0.214
5.604,0.222
5.605,0.222
5.606,0.218
5.607,0.211
5.608,0.212
5.609,0.236
5.61,0.255
5.611,0.255
5.612,0.245
5.613,0.241
5.614,0.227
5.615,0.212
5.616,0.203
5.617,0.181
5.618,0.16
5.619,0.159
5.62,0.143
5.621,0.131
5.622,0.133
5.623,0.116
5.624,0.108
5.625,0.102
5.626,0.098
5.627,0.102
5.628,0.106
5.629,0.092
5.63,0.092
5.631,0.095
5.632,0.071
5.633,0.056
5.634,0.032
5.635,0.022
5.636,0.025
5.637,0.031
5.638,0.037
5.639,0.038
5.64,0.041
5.641,0.046
5.642,0.067
5.643,0.089
5.644,0.095
5.645,0.089
5.646,0.068
5.647,0.054
5.648,0.055
5.649,0.057
5.65,0.051
5.651,0.04
5.652,0.035
5.653,0.033
5.654,0.018
5.655,0.003
5.656,0.002
5.657,0.01
5.658,0.02
5.659,-0.009
5.66,-0.029
5.661,-0.047
5.662,-0.044
5.663,-0.031
5.664,-0.028
5.665,-0.005
5.666,0.007
5.667,0.007
5.668,0.01
5.669,0.014
5.67,0.013
5.671,0.015
5.672,0.01
5.673,0.01
5.674,0.008
5.675,0.01
5.676,0.006
5.677,0.007
5.678,0.009
5.679,0.016
5.68,0.015
5.681,0.01
5.682,0.009
5.683,0.009
5.684,0.011
5.685,0.002
5.686,0.007
5.687,0.008
5.688,-0.003
5.689,0
5.69,-0.002
5.691,-0.017
5.692,-0.011
5.693,-0.002
5.694,-0.002
5.695,0.003
5.696,-0.012
5.697,-0.041
5.698,-0.046
5.699,-0.034
5.7,-0.049
5.701,-0.057
5.702,-0.057
5.703,-0.045
5.704,-0.018
5.705,0.004
5.706,0.01
5.707,0.01
5.708,0.009
5.709,0.014
5.71,0.017
5.711,0.014
5.712,0.023
5.713,0.029
5.714,0.013
5.715,0.005
5.716,0.006
5.717,0.001
5.718,-0.007
5.719,-0.01
5.72,-0.001
5.721,0.003
5.722,0.004
5.723,0.013
5.724,0.007
5.725,0
5.726,-0.005
5.727,-0.012
5.728,-0.018
5.729,-0.024
5.73,-0.026
5.731,-0.015
5.732,-0.012
5.733,-0.011
5.734,-0.012
5.735,-0.013
5.736,-0.013
5.737,-0.018
5.738,-0.024
5.739,-0.026
5.74,-0.034
5.741,-0.032
5.742,-0.019
5.743,0.002
5.744,0.018
5.745,0.021
5.746,0.025
5.747,0.039
5.748,0.019
5.749,0.01
5.75,-0.005
5.751,-0.013
5.752,-0.018
5.753,-0.002
5.754,-0.008
5.755,-0.007
5.756,-0.003
5.757,-0.008
5.758,-0.017
5.759,-0.026
5.76,-0.026
5.761,-0.025
5.762,-0.028
5.763,-0.03
5.764,-0.039
5.765,-0.054
5.766,-0.059
5.767,-0.065
5.768,-0.069
5.769,-0.083
5.77,-0.093
5.771,-0.096
5.772,-0.088
5.773,-0.074
5.774,-0.067
5.775,-0.043
5.776,-0.045
5.777,-0.072
5.778,-0.103
5.779,-0.119
5.78,-0.124
5.781,-0.13
5.782,-0.139
5.783,-0.149
5.784,-0.144
5.785,-0.155
5.786,-0.176
5.787,-0.179
5.788,-0.179
5.789,-0.198
5.79,-0.223
5.791,-0.241
5.792,-0.258
5.793,-0.26
5.794,-0.27
5.795,-0.281
5.796,-0.272
5.797,-0.26
5.798,-0.257
5.799,-0.259
5.8,-0.263
5.801,-0.266
5.802,-0.244
5.803,-0.257
5.804,-0.268
5.805,-0.261
5.806,-0.259
5.807,-0.273
5.808,-0.267
5.809,-0.262
5.81,-0.274
5.811,-0.291
5.812,-0.299
5.813,-0.299
5.814,-0.31
5.815,-0.317
5.816,-0.307
5.817,-0.296
5.818,-0.284
5.819,-0.284
5.82,-0.279
5.821,-0.279
5.822,-0.282
5.823,-0.277
5.824,-0.283
5.825,-0.284
5.826,-0.282
5.827,-0.292
5.828,-0.293
5.829,-0.287
5.83,-0.277
5.831,-0.26
5.832,-0.291
5.833,-0.271
5.834,-0.268
5.835,-0.276
5.836,-0.273
5.837,-0.256
5.838,-0.244
5.839,-0.23
5.84,-0.208
5.841,-0.193
5.842,-0.178
5.843,-0.163
5.844,-0.158
5.845,-0.15
5.846,-0.146
5.847,-0.125
5.848,-0.105
5.849,-0.1
5.85,-0.1
5.851,-0.087
5.852,-0.088
5.853,-0.08
5.854,-0.081
5.855,-0.095
5.856,-0.101
5.857,-0.1
5.858,-0.086
5.859,-0.073
5.86,-0.074
5.861,-0.076
5.862,-0.085
5.863,-0.086
5.864,-0.081
5.865,-0.077
5.866,-0.062
5.867,-0.044
5.868,-0.04
5.869,-0.042
5.87,-0.051
5.871,-0.068
5.872,-0.063
5.873,-0.042
5.874,-0.018
5.875,0.008
5.876,0.018
5.877,0.015
5.878,0.022
5.879,0.015
5.88,0.014
5.881,0.019
5.882,0.027
5.883,0.033
5.884,0.035
5.885,0.038
5.886,0.044
5.887,0.04
5.888,0.052
5.889,0.049
5.89,0.056
5.891,0.054
5.892,0.055
5.893,0.074
5.894,0.082
5.895,0.073
5.896,0.082
5.897,0.088
5.898,0.083
5.899,0.078
5.9,0.088
5.901,0.093
5.902,0.098
5.903,0.105
5.904,0.095
5.905,0.094
5.906,0.103
5.907,0.103
5.908,0.103
5.909,0.104
5.91,0.106
5.911,0.095
5.912,0.083
5.913,0.088
5.914,0.099
5.915,0.109
5.916,0.116
5.917,0.125
5.918,0.117
5.919,0.103
5.92,0.095
5.921,0.083
5.922,0.087
5.923,0.092
5.924,0.098
5.925,0.087
5.926,0.089
5.927,0.115
5.928,0.119
5.929,0.109
5.93,0.104
5.931,0.112
5.932,0.119
5.933,0.115
5.934,0.124
5.935,0.133
5.936,0.135
5.937,0.127
5.938,0.126
5.939,0.137
5.94,0.126
5.941,0.117
5.942,0.107
5.943,0.096
5.944,0.098
5.945,0.09
5.946,0.088
5.947,0.094
5.948,0.093
5.949,0.083
5.95,0.068
5.951,0.058
5.952,0.075
5.953,0.091
5.954,0.092
5.955,0.091
5.956,0.082
5.957,0.086
5.958,0.08
5.959,0.088
5.96,0.092
5.961,0.076
5.962,0.076
5.963,0.08
5.964,0.098
5.965,0.104
5.966,0.088
5.967,0.069
5.968,0.069
5.969,0.079
5.97,0.073
5.971,0.076
5.972,0.085
5.973,0.076
5.974,0.061
5.975,0.068
5.976,0.08
5.977,0.08
5.978,0.075
5.979,0.065
5.98,0.06
5.981,0.069
5.982,0.063
5.983,0.055
5.984,0.076
5.985,0.091
5.986,0.079
5.987,0.079
5.988,0.077
5.989,0.066
5.99,0.059
5.991,0.067
5.992,0.073
5.993,0.071
5.994,0.079
5.995,0.061
5.996,0.055
5.997,0.046
5.998,0.045
5.999,0.041
6,0.049
6.001,0.064
6.002,0.061
6.003,0.061
6.004,0.056
6.005,0.052
6.006,0.04
6.007,0.038
6.008,0.024
6.009,0.034
6.01,0.044
6.011,0.043
6.012,0.051
6.013,0.064
6.014,0.055
6.015,0.054
6.016,0.051
6.017,0.04
6.018,0.029
6.019,0.042
6.02,0.042
6.021,0.025
6.022,0.02
6.023,0.022
6.024,0.023
6.025,0.025
6.026,0.026
6.027,0.031
6.028,0.037
6.029,0.032
6.03,0.029
6.031,0.035
6.032,0.031
6.033,0.033
6.034,0.025
6.035,0.013
6.036,0.017
6.037,0.027
6.038,0.035
6.039,0.04
6.04,0.031
6.041,0.028
6.042,0.031
6.043,0.04
6.044,0.043
6.045,0.049
6.046,0.049
6.047,0.034
6.048,0.029
6.049,0.022
6.05,0.02
6.051,0.021
6.052,0.01
6.053,0.002
6.054,0.006
6.055,0.002
6.056,-0.002
6.057,-0.006
6.058,0.007
6.059,0.021
6.06,0.017
6.061,0.011
6.062,-0.005
6.063,-0.03
6.064,-0.021
6.065,-0.013
6.066,0.002
6.067,0.007
6.068,0.019
6.069,0.036
6.07,0.036
6.071,0.023
6.072,0.037
6.073,0.053
6.074,0.067
6.075,0.064
6.076,0.062
6.077,0.058
6.078,0.053
6.079,0.047
6.08,0.047
6.081,0.056
6.082,0.066
6.083,0.062
6.084,0.05
6.085,0.026
6.086,0.008
6.087,0.001
6.088,-0.01
6.089,-0.024
6.09,-0.033
6.091,-0.017
6.092,0.001
6.093,0.006
6.094,0.002
6.095,0.011
6.096,0.029
6.097,0.051
6.098,0.078
6.099,0.075
6.1,0.059
6.101,0.057
6.102,0.068
6.103,0.087
6.104,0.099
6.105,0.087
6.106,0.077
6.107,0.084
6.108,0.098
6.109,0.107
6.11,0.106
6.111,0.103
6.112,0.096
6.113,0.091
6.114,0.083
6.115,0.063
6.116,0.045
6.117,0.035
6.118,0.027
6.119,0.021
6.12,0.019
6.121,0.001
6.122,-0.021
6.123,-0.017
6.124,-0.021
6.125,-0.039
6.126,-0.041
6.127,-0.045
6.128,-0.047
6.129,-0.033
6.13,-0.023
6.131,-0.023
6.132,-0.024
6.133,-0.03
6.134,-0.03
6.135,-0.015
6.136,-0.019
6.137,-0.025
6.138,-0.035
6.139,-0.034
6.14,-0.03
6.141,-0.038
6.142,-0.062
6.143,-0.074
6.144,-0.085
6.145,-0.087
6.146,-0.081
6.147,-0.08
6.148,-0.074
6.149,-0.062
6.15,-0.053
6.151,-0.045
6.152,-0.052
6.153,-0.046
6.154,-0.053
6.155,-0.071
6.156,-0.064
6.157,-0.067
6.158,-0.092
6.159,-0.104
6.16,-0.104
6.161,-0.114
6.162,-0.114
6.163,-0.119
6.164,-0.131
6.165,-0.136
6.166,-0.136
6.167,-0.124
6.168,-0.106
6.169,-0.098
6.17,-0.093
6.171,-0.094
6.172,-0.093
6.173,-0.096
6.174,-0.096
6.175,-0.092
6.176,-0.083
6.177,-0.064
6.178,-0.041
6.179,-0.039
6.18,-0.022
6.181,-0.016
6.182,-0.017
6.183,-0.008
6.184,0.007
6.185,0.005
6.186,-0.002
6.187,-0.012
6.188,-0.019
6.189,-0.024
6.19,-0.026
6.191,-0.023
6.192,-0.018
6.193,-0.011
6.194,0.009
6.195,0.003
6.196,-0.027
6.197,-0.014
6.198,-0.012
6.199,-0.011
6.2,-0.008
6.201,-0.011
6.202,-0.007
6.203,-0.004
6.204,0.003
6.205,0.005
6.206,0.006
6.207,0.005
6.208,-0.001
6.209,-0.003
6.21,-0.005
6.211,-0.01
6.212,-0.013
6.213,-0.009
6.214,0.003
6.215,0.017
6.216,0.044
6.217,0.067
6.218,0.075
6.219,0.079
6.22,0.097
6.221,0.101
6.222,0.124
6.223,0.17
6.224,0.204
6.225,0.235
6.226,0.294
6.227,0.386
6.228,0.453
6.229,0.534
6.23,0.613
6.231,0.698
6.232,0.765
6.233,0.821
6.234,0.858
6.235,0.889
6.236,0.919
6.237,0.937
6.238,0.949
6.239,0.918
6.24,0.867
6.241,0.794
6.242,0.687
6.243,0.55
6.244,0.387
6.245,0.194
6.246,-0.016
6.247,-0.241
6.248,-0.491
6.249,-0.788
6.25,-1.101
6.251,-1.305
6.252,-1.421
6.253,-1.469
6.254,-1.525
6.255,-1.547
6.256,-1.546
6.257,-1.535
6.258,-1.515
6.259,-1.467
6.26,-1.409
6.261,-1.371
6.262,-1.332
6.263,-1.292
6.264,-1.22
6.265,-1.129
6.266,-1.034
6.267,-0.933
6.268,-0.832
6.269,-0.735
6.27,-0.647
6.271,-0.569
6.272,-0.5
6.273,-0.419
6.274,-0.35
6.275,-0.29
6.276,-0.226
6.277,-0.174
6.278,-0.128
6.279,-0.076
6.28,-0.018
6.281,0.029
6.282,0.078
6.283,0.128
6.284,0.183
6.285,0.222
6.286,0.251
6.287,0.265
6.288,0.29
6.289,0.329
6.29,0.351
6.291,0.357
6.292,0.372
6.293,0.379
6.294,0.398
6.295,0.427
6.296,0.446
6.297,0.449
6.298,0.443
6.299,0.447
6.3,0.443
6.301,0.436
6.302,0.436
6.303,0.444
6.304,0.45
6.305,0.437
6.306,0.434
6.307,0.428
6.308,0.423
6.309,0.417
6.31,0.412
6.311,0.385
6.312,0.366
6.313,0.355
6.314,0.356
6.315,0.366
6.316,0.372
6.317,0.364
6.318,0.351
6.319,0.343
6.32,0.327
6.321,0.316
6.322,0.335
6.323,0.337
6.324,0.34
6.325,0.333
6.326,0.333
6.327,0.342
6.328,0.334
6.329,0.312
6.33,0.286
6.331,0.279
6.332,0.273
6.333,0.26
6.334,0.255
6.335,0.252
6.336,0.251
6.337,0.24
6.338,0.227
6.339,0.218
6.34,0.21
6.341,0.206
6.342,0.195
6.343,0.196
6.344,0.195
6.345,0.178
6.346,0.163
6.347,0.15
6.348,0.141
6.349,0.131
6.35,0.134
6.351,0.131
6.352,0.128
6.353,0.127
6.354,0.12
6.355,0.12
6.356,0.134
6.357,0.129
6.358,0.112
6.359,0.095
6.36,0.087
6.361,0.079
6.362,0.084
6.363,0.091
6.364,0.087
6.365,0.076
6.366,0.059
6.367,0.044
6.368,0.031
6.369,0.026
6.37,0.033
6.371,0.045
6.372,0.049
6.373,0.06
6.374,0.065
6.375,0.053
6.376,0.043
6.377,0.041
6.378,0.041
6.379,0.044
6.38,0.048
6.381,0.049
6.382,0.07
6.383,0.075
6.384,0.065
6.385,0.041
6.386,0.032
6.387,0.032
6.388,0.039
6.389,0.043
6.39,0.041
6.391,0.037
6.392,0.02
6.393,0.011
6.394,0.011
6.395,0.012
6.396,0.02
6.397,0.007
6.398,-0.015
6.399,-0.011
6.4,-0.006
6.401,-0.019
6.402,-0.026
6.403,-0.019
6.404,-0.014
6.405,-0.006
6.406,-0.005
6.407,-0.003
6.408,-0.014
6.409,-0.027
6.41,-0.022
6.411,-0.014
6.412,-0.018
6.413,-0.025
6.414,-0.017
6.415,-0.009
6.416,-0.003
6.417,-0.001
6.418,0.001
6.419,0.006
6.42,-0.002
6.421,-0.015
6.422,-0.027
6.423,-0.028
6.424,-0.022
6.425,-0.027
6.426,-0.033
6.427,-0.038
6.428,-0.037
6.429,-0.022
6.43,-0.013
6.431,-0.016
6.432,-0.017
6.433,-0.012
6.434,-0.005
6.435,0.001
6.436,0.004
6.437,0.005
6.438,-0.009
6.439,-0.014
6.44,-0.02
6.441,-0.023
6.442,-0.043
6.443,-0.052
6.444,-0.044
6.445,-0.042
6.446,-0.06
6.447,-0.057
6.448,-0.033
6.449,-0.017
6.45,-0.004
6.451,0.013
6.452,0.017
6.453,0.015
6.454,0.028
6.455,0.031
6.456,0.031
6.457,0.042
6.458,0.033
6.459,0.038
6.46,0.041
6.461,0.03
6.462,0.016
6.463,-0.003
6.464,-0.008
6.465,-0.013
6.466,-0.02
6.467,-0.018
6.468,-0.012
6.469,-0.009
6.47,0.003
6.471,0.01
6.472,0.01
6.473,0.009
6.474,-0.006
6.475,-0.015
6.476,-0.022
6.477,-0.027
6.478,-0.022
6.479,-0.012
6.48,-0.019
6.481,-0.012
6.482,0.012
6.483,0.021
6.484,-0.005
6.485,-0.011
6.486,-0.015
6.487,-0.029
6.488,-0.026
6.489,-0.032
6.49,-0.037
6.491,-0.04
6.492,-0.049
6.493,-0.058
6.494,-0.063
6.495,-0.079
6.496,-0.08
6.497,-0.083
6.498,-0.081
6.499,-0.078
6.5,-0.084
6.501,-0.091
6.502,-0.101
6.503,-0.104
6.504,-0.1
6.505,-0.111
6.506,-0.124
6.507,-0.117
6.508,-0.106
6.509,-0.112
6.51,-0.13
6.511,-0.143
6.512,-0.145
6.513,-0.155
6.514,-0.171
6.515,-0.189
6.516,-0.208
6.517,-0.211
6.518,-0.216
6.519,-0.218
6.52,-0.213
6.521,-0.206
6.522,-0.207
6.523,-0.237
6.524,-0.244
6.525,-0.246
6.526,-0.252
6.527,-0.254
6.528,-0.263
6.529,-0.26
6.53,-0.263
6.531,-0.27
6.532,-0.271
6.533,-0.277
6.534,-0.288
6.535,-0.298
6.536,-0.29
6.537,-0.293
6.538,-0.272
6.539,-0.255
6.54,-0.26
6.541,-0.271
6.542,-0.275
6.543,-0.279
6.544,-0.278
6.545,-0.267
6.546,-0.265
6.547,-0.266
6.548,-0.279
6.549,-0.297
6.55,-0.296
6.551,-0.294
6.552,-0.3
6.553,-0.305
6.554,-0.297
6.555,-0.299
6.556,-0.291
6.557,-0.263
6.558,-0.233
6.559,-0.282
6.56,-0.237
6.561,-0.216
6.562,-0.203
6.563,-0.19
6.564,-0.189
6.565,-0.194
6.566,-0.19
6.567,-0.19
6.568,-0.19
6.569,-0.182
6.57,-0.178
6.571,-0.163
6.572,-0.162
6.573,-0.157
6.574,-0.158
6.575,-0.151
6.576,-0.141
6.577,-0.145
6.578,-0.152
6.579,-0.153
6.58,-0.142
6.581,-0.119
6.582,-0.114
6.583,-0.116
6.584,-0.11
6.585,-0.11
6.586,-0.094
6.587,-0.07
6.588,-0.062
6.589,-0.059
6.59,-0.054
6.591,-0.053
6.592,-0.051
6.593,-0.048
6.594,-0.051
6.595,-0.046
6.596,-0.034
6.597,-0.03
6.598,-0.036
6.599,-0.041
6.6,-0.04
6.601,-0.045
6.602,-0.041
6.603,-0.024
6.604,-0.015
6.605,-0.018
6.606,-0.015
6.607,-0.01
6.608,0
6.609,0.015
6.61,0.025
6.611,0.02
6.612,0.038
6.613,0.044
6.614,0.047
6.615,0.059
6.616,0.064
6.617,0.074
6.618,0.077
6.619,0.094
6.62,0.08
6.621,0.059
6.622,0.071
6.623,0.07
6.624,0.063
6.625,0.067
6.626,0.079
6.627,0.08
6.628,0.085
6.629,0.092
6.63,0.082
6.631,0.072
6.632,0.075
6.633,0.094
6.634,0.093
6.635,0.081
6.636,0.084
6.637,0.088
6.638,0.095
6.639,0.106
6.64,0.103
6.641,0.091
6.642,0.083
6.643,0.087
6.644,0.111
6.645,0.129
6.646,0.119
6.647,0.105
6.648,0.104
6.649,0.105
6.65,0.111
6.651,0.116
6.652,0.133
6.653,0.128
6.654,0.119
6.655,0.118
6.656,0.117
6.657,0.111
6.658,0.108
6.659,0.106
6.66,0.108
6.661,0.117
6.662,0.126
6.663,0.12
6.664,0.114
6.665,0.1
6.666,0.089
6.667,0.092
6.668,0.094
6.669,0.092
6.67,0.085
6.671,0.07
6.672,0.07
6.673,0.072
6.674,0.073
6.675,0.061
6.676,0.043
6.677,0.04
6.678,0.062
6.679,0.087
6.68,0.109
6.681,0.107
6.682,0.103
6.683,0.112
6.684,0.113
6.685,0.106
6.686,0.099
6.687,0.094
6.688,0.096
6.689,0.099
6.69,0.107
6.691,0.113
6.692,0.108
6.693,0.098
6.694,0.09
6.695,0.089
6.696,0.079
6.697,0.073
6.698,0.075
6.699,0.063
6.7,0.067
6.701,0.069
6.702,0.075
6.703,0.071
6.704,0.067
6.705,0.08
6.706,0.08
6.707,0.067
6.708,0.07
6.709,0.066
6.71,0.065
6.711,0.069
6.712,0.065
6.713,0.06
6.714,0.052
6.715,0.046
6.716,0.047
6.717,0.046
6.718,0.043
6.719,0.054
6.72,0.05
6.721,0.052
6.722,0.063
6.723,0.062
6.724,0.055
6.725,0.048
6.726,0.036
6.727,0.037
6.728,0.042
6.729,0.035
6.73,0.038
6.731,0.05
6.732,0.06
6.733,0.068
6.734,0.065
6.735,0.059
6.736,0.057
6.737,0.059
6.738,0.058
6.739,0.057
6.74,0.047
6.741,0.042
6.742,0.041
6.743,0.028
6.744,0.02
6.745,0.01
6.746,0.009
6.747,0.025
6.748,0.033
6.749,0.04
6.75,0.046
6.751,0.046
6.752,0.048
6.753,0.035
6.754,0.026
6.755,0.022
6.756,0.025
6.757,0.024
6.758,0.016
6.759,0.007
6.76,0.014
6.761,0.019
6.762,0.02
6.763,0.024
6.764,0.032
6.765,0.045
6.766,0.057
6.767,0.053
6.768,0.041
6.769,0.035
6.77,0.035
6.771,0.028
6.772,0.025
6.773,0.009
6.774,0
6.775,0.005
6.776,-0.001
6.777,-0.003
6.778,-0.001
6.779,0.004
6.78,-0.009
6.781,-0.013
6.782,-0.003
6.783,-0.006
6.784,0.008
6.785,0.022
6.786,0.033
6.787,0.056
6.788,0.059
6.789,0.044
6.79,0.034
6.791,0.043
6.792,0.071
6.793,0.078
6.794,0.066
6.795,0.058
6.796,0.062
6.797,0.068
6.798,0.078
6.799,0.087
6.8,0.094
6.801,0.085
6.802,0.071
6.803,0.058
6.804,0.046
6.805,0.038
6.806,0.033
6.807,0.024
6.808,0.017
6.809,0.023
6.81,0.023
6.811,0.03
6.812,0.026
6.813,0.026
6.814,0.036
6.815,0.043
6.816,0.045
6.817,0.048
6.818,0.042
6.819,0.044
6.82,0.048
6.821,0.057
6.822,0.056
6.823,0.05
6.824,0.041
6.825,0.041
6.826,0.032
6.827,0.019
6.828,0.018
6.829,0.023
6.83,0.038
6.831,0.064
6.832,0.074
6.833,0.063
6.834,0.051
6.835,0.044
6.836,0.047
6.837,0.061
6.838,0.055
6.839,0.07
6.84,0.067
6.841,0.056
6.842,0.048
6.843,0.033
6.844,0.03
6.845,0.014
6.846,-0.002
6.847,-0.008
6.848,-0.003
6.849,-0.008
6.85,-0.019
6.851,-0.033
6.852,-0.036
6.853,-0.043
6.854,-0.049
6.855,-0.049
6.856,-0.043
6.857,-0.034
6.858,-0.025
6.859,-0.045
6.86,-0.064
6.861,-0.08
6.862,-0.094
6.863,-0.1
6.864,-0.086
6.865,-0.065
6.866,-0.067
6.867,-0.061
6.868,-0.052
6.869,-0.055
6.87,-0.059
6.871,-0.072
6.872,-0.075
6.873,-0.066
6.874,-0.08
6.875,-0.08
6.876,-0.068
6.877,-0.074
6.878,-0.078
6.879,-0.073
6.88,-0.049
6.881,-0.042
6.882,-0.053
6.883,-0.049
6.884,-0.067
6.885,-0.08
6.886,-0.081
6.887,-0.071
6.888,-0.066
6.889,-0.075
6.89,-0.086
6.891,-0.074
6.892,-0.063
6.893,-0.073
6.894,-0.062
6.895,-0.049
6.896,-0.045
6.897,-0.041
6.898,-0.049
6.899,-0.053
6.9,-0.05
6.901,-0.041
6.902,-0.04
6.903,-0.04
6.904,-0.04
6.905,-0.041
6.906,-0.047
6.907,-0.042
6.908,-0.041
6.909,-0.039
6.91,-0.044
6.911,-0.041
6.912,-0.04
6.913,-0.028
6.914,-0.025
6.915,-0.017
6.916,-0.011
6.917,0.007
6.918,0.004
6.919,0.016
6.92,0.015
6.921,0.035
6.922,-0.037
6.923,0.005
6.924,-0.008
6.925,-0.025
6.926,-0.022
6.927,-0.017
6.928,-0.01
6.929,-0.012
6.93,-0.018
6.931,-0.024
6.932,-0.027
6.933,-0.03
6.934,-0.03
6.935,-0.022
6.936,0.004
6.937,0.021
6.938,0.036
6.939,0.048
6.94,0.065
6.941,0.084
6.942,0.093
6.943,0.11
6.944,0.123
6.945,0.125
6.946,0.124
6.947,0.142
6.948,0.179
6.949,0.229
6.95,0.313
6.951,0.4
6.952,0.488
6.953,0.575
6.954,0.653
6.955,0.745
6.956,0.818
6.957,0.869
6.958,0.908
6.959,0.936
6.96,0.955
6.961,0.971
6.962,0.966
6.963,0.941
6.964,0.852
6.965,0.72
6.966,0.56
6.967,0.386
6.968,0.187
6.969,-0.035
6.97,-0.253
6.971,-0.505
6.972,-0.767
6.973,-1.09
6.974,-1.31
6.975,-1.448
6.976,-1.518
6.977,-1.57
6.978,-1.595
6.979,-1.573
6.98,-1.549
6.981,-1.526
6.982,-1.485
6.983,-1.45
6.984,-1.418
6.985,-1.381
6.986,-1.314
6.987,-1.22
6.988,-1.13
6.989,-1.032
6.99,-0.942
6.991,-0.839
6.992,-0.736
6.993,-0.653
6.994,-0.579
6.995,-0.506
6.996,-0.427
6.997,-0.346
6.998,-0.27
6.999,-0.21
7,-0.159
7.001,-0.108
7.002,-0.035
7.003,0.028
7.004,0.087
7.005,0.137
7.006,0.199
7.007,0.243
7.008,0.268
7.009,0.297
7.01,0.322
7.011,0.354
7.012,0.38
7.013,0.407
7.014,0.426
7.015,0.438
7.016,0.455
7.017,0.471
7.018,0.482
7.019,0.478
7.02,0.486
7.021,0.481
7.022,0.482
7.023,0.472
7.024,0.455
7.025,0.446
7.026,0.428
7.027,0.413
7.028,0.401
7.029,0.394
7.03,0.388
7.031,0.386
7.032,0.381
7.033,0.367
7.034,0.351
7.035,0.357
7.036,0.352
7.037,0.347
7.038,0.344
7.039,0.343
7.04,0.348
7.041,0.341
7.042,0.34
7.043,0.351
7.044,0.342
7.045,0.323
7.046,0.312
7.047,0.3
7.048,0.297
7.049,0.306
7.05,0.293
7.051,0.276
7.052,0.259
7.053,0.254
7.054,0.244
7.055,0.23
7.056,0.235
7.057,0.226
7.058,0.222
7.059,0.221
7.06,0.219
7.061,0.208
7.062,0.191
7.063,0.178
7.064,0.176
7.065,0.161
7.066,0.163
7.067,0.159
7.068,0.163
7.069,0.171
7.07,0.156
7.071,0.153
7.072,0.161
7.073,0.168
7.074,0.171
7.075,0.17
7.076,0.167
7.077,0.164
7.078,0.152
7.079,0.142
7.08,0.14
7.081,0.136
7.082,0.119
7.083,0.12
7.084,0.134
7.085,0.132
7.086,0.115
7.087,0.093
7.088,0.089
7.089,0.084
7.09,0.067
7.091,0.064
7.092,0.066
7.093,0.053
7.094,0.037
7.095,0.037
7.096,0.042
7.097,0.043
7.098,0.054
7.099,0.055
7.1,0.052
7.101,0.048
7.102,0.042
7.103,0.032
7.104,0.025
7.105,0.028
7.106,0.027
7.107,0.03
7.108,0.022
7.109,0.008
7.11,-0.001
7.111,-0.014
7.112,-0.019
7.113,-0.016
7.114,-0.02
7.115,-0.022
7.116,-0.021
7.117,-0.023
7.118,-0.027
7.119,-0.033
7.12,-0.031
7.121,-0.04
7.122,-0.043
7.123,-0.044
7.124,-0.027
7.125,-0.01
7.126,-0.023
7.127,-0.023
7.128,-0.013
7.129,-0.013
7.13,-0.001
7.131,0.018
7.132,0.008
7.133,0.007
7.134,0.007
7.135,0.009
7.136,0.021
7.137,0.011
7.138,-0.003
7.139,-0.004
7.14,-0.003
7.141,0.002
7.142,0.008
7.143,-0.001
7.144,-0.005
7.145,-0.006
7.146,-0.011
7.147,-0.011
7.148,-0.019
7.149,-0.016
7.15,-0.01
7.151,-0.003
7.152,-0.001
7.153,-0.004
7.154,-0.003
7.155,-0.005
7.156,-0.004
7.157,-0.002
7.158,0
7.159,-0.006
7.16,-0.008
7.161,0.005
7.162,0.016
7.163,0.001
7.164,-0.014
7.165,-0.013
7.166,-0.021
7.167,-0.006
7.168,0.008
7.169,0.012
7.17,0.006
7.171,-0.002
7.172,-0.002
7.173,-0.008
7.174,-0.006
7.175,-0.005
7.176,-0.001
7.177,-0.001
7.178,-0.001
7.179,0
7.18,-0.009
7.181,-0.002
7.182,0.005
7.183,0.007
7.184,0.01
7.185,0.01
7.186,0.016
7.187,0.021
7.188,0.024
7.189,0.027
7.19,0.031
7.191,0.017
7.192,0.008
7.193,-0.002
7.194,-0.018
7.195,-0.021
7.196,-0.019
7.197,-0.013
7.198,-0.015
7.199,-0.014
7.2,-0.018
7.201,-0.027
7.202,-0.035
7.203,-0.028
7.204,-0.019
7.205,-0.004
7.206,0.004
7.207,0.002
7.208,0.011
7.209,0.014
7.21,0
7.211,-0.013
7.212,-0.029
7.213,-0.037
7.214,-0.052
7.215,-0.061
7.216,-0.063
7.217,-0.068
7.218,-0.059
7.219,-0.063
7.22,-0.075
7.221,-0.081
7.222,-0.081
7.223,-0.074
7.224,-0.074
7.225,-0.079
7.226,-0.087
7.227,-0.105
7.228,-0.123
7.229,-0.134
7.23,-0.127
7.231,-0.125
7.232,-0.128
7.233,-0.147
7.234,-0.151
7.235,-0.155
7.236,-0.145
7.237,-0.149
7.238,-0.18
7.239,-0.182
7.24,-0.175
7.241,-0.173
7.242,-0.183
7.243,-0.197
7.244,-0.203
7.245,-0.21
7.246,-0.218
7.247,-0.236
7.248,-0.235
7.249,-0.238
7.25,-0.258
7.251,-0.263
7.252,-0.262
7.253,-0.263
7.254,-0.271
7.255,-0.266
7.256,-0.256
7.257,-0.271
7.258,-0.282
7.259,-0.282
7.26,-0.288
7.261,-0.295
7.262,-0.301
7.263,-0.302
7.264,-0.309
7.265,-0.314
7.266,-0.295
7.267,-0.298
7.268,-0.312
7.269,-0.314
7.27,-0.317
7.271,-0.323
7.272,-0.324
7.273,-0.324
7.274,-0.32
7.275,-0.317
7.276,-0.307
7.277,-0.295
7.278,-0.276
7.279,-0.277
7.28,-0.272
7.281,-0.248
7.282,-0.235
7.283,-0.244
7.284,-0.195
7.285,-0.291
7.286,-0.24
7.287,-0.238
7.288,-0.24
7.289,-0.232
7.29,-0.236
7.291,-0.239
7.292,-0.246
7.293,-0.242
7.294,-0.225
7.295,-0.204
7.296,-0.181
7.297,-0.163
7.298,-0.154
7.299,-0.151
7.3,-0.135
7.301,-0.123
7.302,-0.115
7.303,-0.105
7.304,-0.101
7.305,-0.109
7.306,-0.09
7.307,-0.071
7.308,-0.052
7.309,-0.044
7.31,-0.045
7.311,-0.038
7.312,-0.036
7.313,-0.036
7.314,-0.039
7.315,-0.031
7.316,-0.03
7.317,-0.028
7.318,-0.028
7.319,-0.025
7.32,-0.024
7.321,-0.021
7.322,-0.015
7.323,-0.014
7.324,-0.011
7.325,-0.022
7.326,-0.019
7.327,-0.013
7.328,-0.006
7.329,-0.005
7.33,-0.004
7.331,0.008
7.332,0.024
7.333,0.044
7.334,0.033
7.335,0.018
7.336,0.033
7.337,0.043
7.338,0.038
7.339,0.044
7.34,0.057
7.341,0.065
7.342,0.062
7.343,0.073
7.344,0.077
7.345,0.079
7.346,0.079
7.347,0.086
7.348,0.09
7.349,0.075
7.35,0.082
7.351,0.085
7.352,0.076
7.353,0.078
7.354,0.078
7.355,0.076
7.356,0.079
7.357,0.094
7.358,0.107
7.359,0.118
7.36,0.12
7.361,0.109
7.362,0.102
7.363,0.096
7.364,0.096
7.365,0.086
7.366,0.078
7.367,0.076
7.368,0.091
7.369,0.095
7.37,0.087
7.371,0.072
7.372,0.068
7.373,0.068
7.374,0.068
7.375,0.077
7.376,0.091
7.377,0.091
7.378,0.096
7.379,0.109
7.38,0.111
7.381,0.114
7.382,0.123
7.383,0.124
7.384,0.128
7.385,0.14
7.386,0.145
7.387,0.134
7.388,0.133
7.389,0.134
7.39,0.122
7.391,0.11
7.392,0.11
7.393,0.114
7.394,0.113
7.395,0.117
7.396,0.126
7.397,0.123
7.398,0.121
7.399,0.116
7.4,0.103
7.401,0.103
7.402,0.115
7.403,0.112
7.404,0.104
7.405,0.1
7.406,0.099
7.407,0.094
7.408,0.095
7.409,0.092
7.41,0.103
7.411,0.107
7.412,0.106
7.413,0.101
7.414,0.097
7.415,0.081
7.416,0.073
7.417,0.063
7.418,0.048
7.419,0.05
7.42,0.057
7.421,0.065
7.422,0.06
7.423,0.06
7.424,0.077
7.425,0.081
7.426,0.076
7.427,0.061
7.428,0.045
7.429,0.051
7.43,0.057
7.431,0.049
7.432,0.046
7.433,0.047
7.434,0.069
7.435,0.082
7.436,0.07
7.437,0.059
7.438,0.057
7.439,0.068
7.44,0.067
7.441,0.062
7.442,0.052
7.443,0.055
7.444,0.062
7.445,0.064
7.446,0.055
7.447,0.055
7.448,0.068
7.449,0.072
7.45,0.08
7.451,0.069
7.452,0.059
7.453,0.064
7.454,0.056
7.455,0.045
7.456,0.04
7.457,0.043
7.458,0.037
7.459,0.032
7.46,0.031
7.461,0.04
7.462,0.044
7.463,0.048
7.464,0.04
7.465,0.032
7.466,0.03
7.467,0.024
7.468,0.019
7.469,0.018
7.47,0.01
7.471,0.021
7.472,0.042
7.473,0.055
7.474,0.038
7.475,0.028
7.476,0.025
7.477,0.025
7.478,0.024
7.479,0.028
7.48,0.035
7.481,0.044
7.482,0.051
7.483,0.048
7.484,0.047
7.485,0.041
7.486,0.037
7.487,0.021
7.488,0.012
7.489,0.009
7.49,0.005
7.491,0.002
7.492,0
7.493,0.001
7.494,0.008
7.495,0.004
7.496,0.011
7.497,0.024
7.498,0.019
7.499,0.02
7.5,0.028
7.501,0.031
7.502,0.024
7.503,0.019
7.504,0.023
7.505,0.015
7.506,0.008
7.507,0.009
7.508,0.017
7.509,0.023
7.51,0.028
7.511,0.028
7.512,0.052
7.513,0.071
7.514,0.049
7.515,0.017
7.516,0.015
7.517,0.009
7.518,0.011
7.519,0.019
7.52,0.032
7.521,0.043
7.522,0.04
7.523,0.062
7.524,0.081
7.525,0.069
7.526,0.057
7.527,0.048
7.528,0.031
7.529,0.032
7.53,0.036
7.531,0.032
7.532,0.041
7.533,0.036
7.534,0.028
7.535,0.047
7.536,0.04
7.537,0.018
7.538,0.003
7.539,-0.006
7.54,-0.002
7.541,0.007
7.542,0.014
7.543,0.023
7.544,0.025
7.545,0.043
7.546,0.052
7.547,0.048
7.548,0.049
7.549,0.052
7.55,0.059
7.551,0.06
7.552,0.062
7.553,0.064
7.554,0.06
7.555,0.067
7.556,0.08
7.557,0.076
7.558,0.07
7.559,0.056
7.56,0.052
7.561,0.062
7.562,0.063
7.563,0.057
7.564,0.06
7.565,0.071
7.566,0.061
7.567,0.036
7.568,0.022
7.569,0.014
7.57,0.009
7.571,0.013
7.572,0.015
7.573,0.005
7.574,0.008
7.575,-0.006
7.576,-0.03
7.577,-0.038
7.578,-0.038
7.579,-0.064
7.58,-0.075
7.581,-0.069
7.582,-0.063
7.583,-0.057
7.584,-0.054
7.585,-0.049
7.586,-0.042
7.587,-0.038
7.588,-0.046
7.589,-0.044
7.59,-0.037
7.591,-0.045
7.592,-0.049
7.593,-0.056
7.594,-0.049
7.595,-0.038
7.596,-0.037
7.597,-0.044
7.598,-0.037
7.599,-0.049
7.6,-0.069
7.601,-0.07
7.602,-0.078
7.603,-0.071
7.604,-0.065
7.605,-0.064
7.606,-0.071
7.607,-0.081
7.608,-0.073
7.609,-0.07
7.61,-0.067
7.611,-0.065
7.612,-0.069
7.613,-0.073
7.614,-0.065
7.615,-0.067
7.616,-0.071
7.617,-0.072
7.618,-0.085
7.619,-0.094
7.62,-0.099
7.621,-0.1
7.622,-0.092
7.623,-0.098
7.624,-0.101
7.625,-0.089
7.626,-0.085
7.627,-0.081
7.628,-0.07
7.629,-0.057
7.63,-0.058
7.631,-0.046
7.632,-0.028
7.633,-0.027
7.634,-0.04
7.635,-0.033
7.636,-0.027
7.637,-0.027
7.638,-0.031
7.639,-0.031
7.64,-0.021
7.641,-0.011
7.642,-0.004
7.643,-0.003
7.644,0.002
7.645,0.002
7.646,-0.001
7.647,0.046
7.648,-0.052
7.649,-0.002
7.65,-0.017
7.651,-0.026
7.652,-0.024
7.653,-0.022
7.654,-0.025
7.655,-0.024
7.656,-0.018
7.657,-0.02
7.658,-0.016
7.659,0.001
7.66,0.008
7.661,0.014
7.662,0.031
7.663,0.065
7.664,0.092
7.665,0.107
7.666,0.111
7.667,0.121
7.668,0.121
7.669,0.131
7.67,0.148
7.671,0.179
7.672,0.21
7.673,0.234
7.674,0.286
7.675,0.351
7.676,0.409
7.677,0.458
7.678,0.517
7.679,0.603
7.68,0.688
7.681,0.754
7.682,0.818
7.683,0.872
7.684,0.939
7.685,0.978
7.686,0.985
7.687,0.964
7.688,0.917
7.689,0.821
7.69,0.692
7.691,0.531
7.692,0.358
7.693,0.151
7.694,-0.061
7.695,-0.25
7.696,-0.467
7.697,-0.74
7.698,-1.066
7.699,-1.307
7.7,-1.465
7.701,-1.545
7.702,-1.586
7.703,-1.597
7.704,-1.59
7.705,-1.573
7.706,-1.555
7.707,-1.519
7.708,-1.479
7.709,-1.422
7.71,-1.367
7.711,-1.287
7.712,-1.208
7.713,-1.123
7.714,-1.031
7.715,-0.944
7.716,-0.843
7.717,-0.745
7.718,-0.653
7.719,-0.564
7.72,-0.488
7.721,-0.401
7.722,-0.317
7.723,-0.263
7.724,-0.222
7.725,-0.175
7.726,-0.106
7.727,-0.03
7.728,0.03
7.729,0.106
7.73,0.167
7.731,0.209
7.732,0.245
7.733,0.297
7.734,0.336
7.735,0.349
7.736,0.364
7.737,0.383
7.738,0.406
7.739,0.423
7.74,0.441
7.741,0.47
7.742,0.483
7.743,0.477
7.744,0.466
7.745,0.452
7.746,0.449
7.747,0.448
7.748,0.439
7.749,0.423
7.75,0.416
7.751,0.402
7.752,0.389
7.753,0.385
7.754,0.391
7.755,0.4
7.756,0.4
7.757,0.394
7.758,0.38
7.759,0.369
7.76,0.369
7.761,0.374
7.762,0.368
7.763,0.351
7.764,0.335
7.765,0.319
7.766,0.322
7.767,0.324
7.768,0.32
7.769,0.324
7.77,0.325
7.771,0.321
7.772,0.3
7.773,0.283
7.774,0.283
7.775,0.267
7.776,0.26
7.777,0.263
7.778,0.271
7.779,0.28
7.78,0.286
7.781,0.272
7.782,0.251
7.783,0.24
7.784,0.23
7.785,0.218
7.786,0.205
7.787,0.205
7.788,0.193
7.789,0.186
7.79,0.192
7.791,0.189
7.792,0.187
7.793,0.188
7.794,0.183
7.795,0.188
7.796,0.188
7.797,0.179
7.798,0.165
7.799,0.155
7.8,0.144
7.801,0.127
7.802,0.116
7.803,0.112
7.804,0.11
7.805,0.091
7.806,0.094
7.807,0.1
7.808,0.09
7.809,0.086
7.81,0.071
7.811,0.059
7.812,0.059
7.813,0.048
7.814,0.039
7.815,0.043
7.816,0.06
7.817,0.061
7.818,0.061
7.819,0.059
7.82,0.047
7.821,0.044
7.822,0.037
7.823,0.04
7.824,0.052
7.825,0.047
7.826,0.057
7.827,0.057
7.828,0.052
7.829,0.033
7.83,0.018
7.831,0.01
7.832,0.006
7.833,0.017
7.834,0.031
7.835,0.041
7.836,0.029
7.837,0.022
7.838,0.005
7.839,-0.002
7.84,0.002
7.841,-0.001
7.842,-0.013
7.843,-0.001
7.844,0.007
7.845,0.001
7.846,0.003
7.847,0.002
7.848,-0.008
7.849,-0.009
7.85,0.002
7.851,0.009
7.852,0.003
7.853,-0.002
7.854,-0.002
7.855,-0.009
7.856,-0.019
7.857,-0.012
7.858,-0.007
7.859,-0.001
7.86,-0.001
7.861,-0.001
7.862,0.003
7.863,0.001
7.864,0.005
7.865,0.008
7.866,-0.007
7.867,-0.01
7.868,-0.012
7.869,-0.015
7.87,-0.003
7.871,0.001
7.872,0.002
7.873,0.001
7.874,0.009
7.875,0.012
7.876,-0.001
7.877,-0.009
7.878,-0.026
7.879,-0.039
7.88,-0.036
7.881,-0.031
7.882,-0.032
7.883,-0.036
7.884,-0.02
7.885,-0.006
7.886,-0.016
7.887,-0.01
7.888,-0.009
7.889,-0.001
7.89,-0.002
7.891,0.006
7.892,0.024
7.893,0.017
7.894,0.014
7.895,0.009
7.896,0.019
7.897,0.016
7.898,0
7.899,-0.011
7.9,-0.007
7.901,-0.007
7.902,-0.012
7.903,-0.03
7.904,-0.043
7.905,-0.039
7.906,-0.026
7.907,-0.001
7.908,0.009
7.909,0.017
7.91,0.023
7.911,0.021
7.912,0.018
7.913,0.017
7.914,0.026
7.915,0.033
7.916,0.032
7.917,0.032
7.918,0.027
7.919,0.025
7.92,0.025
7.921,0.025
7.922,0.012
7.923,-0.003
7.924,-0.001
7.925,-0.001
7.926,-0.008
7.927,-0.011
7.928,-0.01
7.929,-0.018
7.93,-0.02
7.931,-0.018
7.932,-0.006
7.933,-0.004
7.934,-0.007
7.935,-0.002
7.936,-0.026
7.937,-0.04
7.938,-0.047
7.939,-0.062
7.94,-0.071
7.941,-0.063
7.942,-0.046
7.943,-0.055
7.944,-0.07
7.945,-0.082
7.946,-0.093
7.947,-0.093
7.948,-0.096
7.949,-0.098
7.95,-0.106
7.951,-0.112
7.952,-0.116
7.953,-0.115
7.954,-0.114
7.955,-0.122
7.956,-0.13
7.957,-0.144
7.958,-0.161
7.959,-0.173
7.96,-0.177
7.961,-0.184
7.962,-0.193
7.963,-0.191
7.964,-0.21
7.965,-0.219
7.966,-0.214
7.967,-0.22
7.968,-0.215
7.969,-0.199
7.97,-0.193
7.971,-0.192
7.972,-0.206
7.973,-0.221
7.974,-0.23
7.975,-0.245
7.976,-0.249
7.977,-0.244
7.978,-0.25
7.979,-0.254
7.98,-0.256
7.981,-0.263
7.982,-0.28
7.983,-0.303
7.984,-0.305
7.985,-0.304
7.986,-0.309
7.987,-0.304
7.988,-0.298
7.989,-0.297
7.99,-0.295
7.991,-0.302
7.992,-0.303
7.993,-0.296
7.994,-0.294
7.995,-0.302
7.996,-0.303
7.997,-0.293
7.998,-0.279
7.999,-0.274
8,-0.269
8.001,-0.264
8.002,-0.262
8.003,-0.258
8.004,-0.258
8.005,-0.266
8.006,-0.272
8.007,-0.266
8.008,-0.247
8.009,-0.237
8.01,-0.184
8.011,-0.283
8.012,-0.241
8.013,-0.251
8.014,-0.238
8.015,-0.228
8.016,-0.203
8.017,-0.188
8.018,-0.183
8.019,-0.173
8.02,-0.162
8.021,-0.159
8.022,-0.171
8.023,-0.171
8.024,-0.166
8.025,-0.155
8.026,-0.154
8.027,-0.135
8.028,-0.136
8.029,-0.127
8.03,-0.112
8.031,-0.087
8.032,-0.092
8.033,-0.094
8.034,-0.091
8.035,-0.1
8.036,-0.103
8.037,-0.092
8.038,-0.078
8.039,-0.073
8.04,-0.064
8.041,-0.057
8.042,-0.045
8.043,-0.03
8.044,-0.039
8.045,-0.032
8.046,-0.017
8.047,-0.007
8.048,-0.002
8.049,-0.004
8.05,0.004
8.051,0.011
8.052,0.006
8.053,0.014
8.054,0.012
8.055,0.016
8.056,0.018
8.057,0.023
8.058,0.028
8.059,0.035
8.06,0.053
8.061,0.065
8.062,0.066
8.063,0.063
8.064,0.051
8.065,0.046
8.066,0.062
8.067,0.073
8.068,0.086
8.069,0.089
8.07,0.092
8.071,0.101
8.072,0.119
8.073,0.118
8.074,0.099
8.075,0.089
8.076,0.077
8.077,0.065
8.078,0.071
8.079,0.07
8.08,0.07
8.081,0.072
8.082,0.076
8.083,0.094
8.084,0.09
8.085,0.084
8.086,0.074
8.087,0.074
8.088,0.087
8.089,0.097
8.09,0.105
8.091,0.114
8.092,0.111
8.093,0.107
8.094,0.112
8.095,0.123
8.096,0.12
8.097,0.12
8.098,0.11
8.099,0.109
8.1,0.102
8.101,0.094
8.102,0.095
8.103,0.086
8.104,0.088
8.105,0.097
8.106,0.09
8.107,0.088
8.108,0.095
8.109,0.099
8.11,0.108
8.111,0.107
8.112,0.098
8.113,0.103
8.114,0.108
8.115,0.124
8.116,0.125
8.117,0.12
8.118,0.123
8.119,0.119
8.12,0.107
8.121,0.102
8.122,0.094
8.123,0.087
8.124,0.084
8.125,0.089
8.126,0.096
8.127,0.109
8.128,0.099
8.129,0.093
8.13,0.075
8.131,0.076
8.132,0.075
8.133,0.061
8.134,0.056
8.135,0.062
8.136,0.072
8.137,0.081
8.138,0.094
8.139,0.106
8.14,0.099
8.141,0.102
8.142,0.103
8.143,0.104
8.144,0.106
8.145,0.12
8.146,0.123
8.147,0.107
8.148,0.098
8.149,0.092
8.15,0.088
8.151,0.084
8.152,0.078
8.153,0.089
8.154,0.089
8.155,0.079
8.156,0.057
8.157,0.05
8.158,0.055
8.159,0.053
8.16,0.059
8.161,0.074
8.162,0.072
8.163,0.068
8.164,0.065
8.165,0.075
8.166,0.075
8.167,0.07
8.168,0.078
8.169,0.067
8.17,0.067
8.171,0.079
8.172,0.077
8.173,0.064
8.174,0.058
8.175,0.048
8.176,0.032
8.177,0.026
8.178,0.033
8.179,0.045
8.18,0.052
8.181,0.062
8.182,0.066
8.183,0.063
8.184,0.059
8.185,0.042
8.186,0.035
8.187,0.039
8.188,0.04
8.189,0.049
8.19,0.074
8.191,0.064
8.192,0.05
8.193,0.039
8.194,0.038
8.195,0.035
8.196,0.028
8.197,0.02
8.198,0.006
8.199,-0.007
8.2,-0.026
8.201,-0.029
8.202,-0.03
8.203,-0.036
8.204,-0.034
8.205,-0.029
8.206,-0.017
8.207,-0.008
8.208,0.009
8.209,0.037
8.21,0.06
8.211,0.048
8.212,0.058
8.213,0.062
8.214,0.051
8.215,0.056
8.216,0.063
8.217,0.068
8.218,0.064
8.219,0.065
8.22,0.055
8.221,0.052
8.222,0.051
8.223,0.044
8.224,0.034
8.225,0.028
8.226,0.029
8.227,0.035
8.228,0.011
8.229,-0.01
8.23,-0.025
8.231,-0.038
8.232,-0.045
8.233,-0.049
8.234,-0.031
8.235,-0.011
8.236,-0.002
8.237,0.005
8.238,0.027
8.239,0.036
8.24,0.059
8.241,0.072
8.242,0.078
8.243,0.074
8.244,0.07
8.245,0.066
8.246,0.068
8.247,0.079
8.248,0.076
8.249,0.067
8.25,0.06
8.251,0.055
8.252,0.029
8.253,0.029
8.254,0.051
8.255,0.054
8.256,0.043
8.257,0.043
8.258,0.041
8.259,0.03
8.26,0.034
8.261,0.034
8.262,0.023
8.263,0.012
8.264,0.025
8.265,0.025
8.266,0.038
8.267,0.034
8.268,0.018
8.269,0.005
8.27,0.006
8.271,0.002
8.272,-0.001
8.273,0.001
8.274,0
8.275,-0.004
8.276,-0.015
8.277,-0.008
8.278,0.008
8.279,0.033
8.28,0.056
8.281,0.091
8.282,0.117
8.283,0.131
8.284,0.11
8.285,0.091
8.286,0.087
8.287,0.086
8.288,0.094
8.289,0.096
8.29,0.085
8.291,0.075
8.292,0.068
8.293,0.045
8.294,0.024
8.295,0.003
8.296,-0.017
8.297,-0.029
8.298,-0.041
8.299,-0.056
8.3,-0.064
8.301,-0.06
8.302,-0.059
8.303,-0.05
8.304,-0.052
8.305,-0.028
8.306,-0.03
8.307,-0.045
8.308,-0.049
8.309,-0.042
8.31,-0.041
8.311,-0.032
8.312,-0.03
8.313,-0.053
8.314,-0.057
8.315,-0.049
8.316,-0.046
8.317,-0.057
8.318,-0.062
8.319,-0.078
8.32,-0.087
8.321,-0.083
8.322,-0.093
8.323,-0.079
8.324,-0.067
8.325,-0.066
8.326,-0.059
8.327,-0.065
8.328,-0.067
8.329,-0.057
8.33,-0.057
8.331,-0.059
8.332,-0.064
8.333,-0.072
8.334,-0.073
8.335,-0.082
8.336,-0.078
8.337,-0.072
8.338,-0.077
8.339,-0.081
8.34,-0.069
8.341,-0.079
8.342,-0.1
8.343,-0.096
8.344,-0.087
8.345,-0.083
8.346,-0.075
8.347,-0.068
8.348,-0.062
8.349,-0.063
8.35,-0.06
8.351,-0.056
8.352,-0.063
8.353,-0.072
8.354,-0.081
8.355,-0.082
8.356,-0.081
8.357,-0.073
8.358,-0.057
8.359,-0.039
8.36,-0.03
8.361,-0.021
8.362,-0.013
8.363,-0.027
8.364,-0.032
8.365,-0.025
8.366,-0.017
8.367,-0.012
8.368,-0.005
8.369,-0.011
8.37,-0.011
8.371,-0.012
8.372,-0.012
8.373,0.038
8.374,-0.06
8.375,-0.021
8.376,-0.029
8.377,-0.025
8.378,-0.032
8.379,-0.038
8.38,-0.034
8.381,-0.036
8.382,-0.038
8.383,-0.023
8.384,-0.017
8.385,-0.003
8.386,0.017
8.387,0.034
8.388,0.06
8.389,0.08
8.39,0.111
8.391,0.116
8.392,0.12
8.393,0.134
8.394,0.135
8.395,0.14
8.396,0.153
8.397,0.153
8.398,0.18
8.399,0.226
8.4,0.282
8.401,0.356
8.402,0.441
8.403,0.532
8.404,0.629
8.405,0.726
8.406,0.791
8.407,0.851
8.408,0.893
8.409,0.93
8.41,0.968
8.411,0.991
8.412,0.988
8.413,0.935
8.414,0.874
8.415,0.766
8.416,0.618
8.417,0.448
8.418,0.265
8.419,0.035
8.42,-0.157
8.421,-0.377
8.422,-0.63
8.423,-0.949
8.424,-1.219
8.425,-1.387
8.426,-1.487
8.427,-1.524
8.428,-1.552
8.429,-1.57
8.43,-1.56
8.431,-1.544
8.432,-1.506
8.433,-1.467
8.434,-1.425
8.435,-1.401
8.436,-1.354
8.437,-1.292
8.438,-1.216
8.439,-1.117
8.44,-1.009
8.441,-0.907
8.442,-0.792
8.443,-0.681
8.444,-0.605
8.445,-0.529
8.446,-0.456
8.447,-0.375
8.448,-0.302
8.449,-0.243
8.45,-0.201
8.451,-0.162
8.452,-0.117
8.453,-0.048
8.454,0.02
8.455,0.086
8.456,0.154
8.457,0.218
8.458,0.25
8.459,0.277
8.46,0.316
8.461,0.343
8.462,0.38
8.463,0.407
8.464,0.424
8.465,0.446
8.466,0.475
8.467,0.492
8.468,0.489
8.469,0.474
8.47,0.449
8.471,0.433
8.472,0.412
8.473,0.398
8.474,0.41
8.475,0.423
8.476,0.434
8.477,0.447
8.478,0.454
8.479,0.453
8.48,0.459
8.481,0.446
8.482,0.429
8.483,0.425
8.484,0.407
8.485,0.408
8.486,0.402
8.487,0.389
8.488,0.387
8.489,0.383
8.49,0.38
8.491,0.378
8.492,0.363
8.493,0.331
8.494,0.305
8.495,0.29
8.496,0.277
8.497,0.28
8.498,0.282
8.499,0.289
8.5,0.288
8.501,0.293
8.502,0.283
8.503,0.278
8.504,0.271
8.505,0.273
8.506,0.259
8.507,0.258
8.508,0.258
8.509,0.259
8.51,0.253
8.511,0.24
8.512,0.233
8.513,0.228
8.514,0.208
8.515,0.192
8.516,0.179
8.517,0.172
8.518,0.161
8.519,0.144
8.52,0.138
8.521,0.137
8.522,0.129
8.523,0.136
8.524,0.14
8.525,0.135
8.526,0.148
8.527,0.131
8.528,0.118
8.529,0.101
8.53,0.09
8.531,0.096
8.532,0.102
8.533,0.101
8.534,0.093
8.535,0.09
8.536,0.087
8.537,0.092
8.538,0.084
8.539,0.092
8.54,0.095
8.541,0.077
8.542,0.061
8.543,0.066
8.544,0.078
8.545,0.092
8.546,0.092
8.547,0.073
8.548,0.061
8.549,0.048
8.55,0.041
8.551,0.036
8.552,0.042
8.553,0.048
8.554,0.042
8.555,0.029
8.556,0.02
8.557,0.004
8.558,-0.001
8.559,-0.005
8.56,-0.008
8.561,-0.001
8.562,0.006
8.563,-0.006
8.564,-0.008
8.565,-0.011
8.566,-0.014
8.567,-0.011
8.568,0
8.569,0.009
8.57,0.021
8.571,0.022
8.572,0.013
8.573,0.021
8.574,0.038
8.575,0.019
8.576,0.007
8.577,0.009
8.578,0.005
8.579,0.005
8.58,0.002
8.581,-0.016
8.582,-0.009
8.583,-0.005
8.584,-0.004
8.585,-0.006
8.586,-0.016
8.587,-0.001
8.588,-0.009
8.589,-0.024
8.59,-0.037
8.591,-0.046
8.592,-0.048
8.593,-0.053
8.594,-0.03
8.595,-0.026
8.596,-0.028
8.597,-0.018
8.598,-0.019
8.599,-0.029
8.6,-0.04
8.601,-0.039
8.602,-0.023
8.603,-0.011
8.604,-0.005
8.605,0.01
8.606,0.019
8.607,0.02
8.608,0.021
8.609,0.014
8.61,0.007
8.611,0.006
8.612,0.007
8.613,0.001
8.614,0
8.615,0.014
8.616,0.013
8.617,0.004
8.618,0.004
8.619,-0.002
8.62,-0.017
8.621,-0.026
8.622,-0.029
8.623,-0.027
8.624,-0.019
8.625,-0.005
8.626,-0.003
8.627,-0.007
8.628,0
8.629,0.017
8.63,0.018
8.631,0.01
8.632,0
8.633,-0.007
8.634,-0.016
8.635,-0.011
8.636,-0.032
8.637,-0.027
8.638,-0.013
8.639,-0.013
8.64,-0.003
8.641,0.009
8.642,0.017
8.643,0.033
8.644,0.034
8.645,0.046
8.646,0.043
8.647,0.045
8.648,0.039
8.649,0.023
8.65,0.031
8.651,0.022
8.652,0.01
8.653,-0.014
8.654,-0.049
8.655,-0.065
8.656,-0.083
8.657,-0.084
8.658,-0.08
8.659,-0.068
8.66,-0.059
8.661,-0.045
8.662,-0.05
8.663,-0.047
8.664,-0.034
8.665,-0.03
8.666,-0.045
8.667,-0.05
8.668,-0.044
8.669,-0.048
8.67,-0.042
8.671,-0.032
8.672,-0.035
8.673,-0.034
8.674,-0.056
8.675,-0.068
8.676,-0.075
8.677,-0.095
8.678,-0.108
8.679,-0.13
8.68,-0.151
8.681,-0.174
8.682,-0.18
8.683,-0.189
8.684,-0.194
8.685,-0.186
8.686,-0.163
8.687,-0.149
8.688,-0.15
8.689,-0.15
8.69,-0.142
8.691,-0.152
8.692,-0.152
8.693,-0.15
8.694,-0.153
8.695,-0.162
8.696,-0.168
8.697,-0.178
8.698,-0.193
8.699,-0.203
8.7,-0.21
8.701,-0.226
8.702,-0.252
8.703,-0.262
8.704,-0.267
8.705,-0.291
8.706,-0.311
8.707,-0.313
8.708,-0.312
8.709,-0.314
8.71,-0.326
8.711,-0.327
8.712,-0.328
8.713,-0.325
8.714,-0.319
8.715,-0.317
8.716,-0.3
8.717,-0.286
8.718,-0.292
8.719,-0.299
8.72,-0.299
8.721,-0.304
8.722,-0.301
8.723,-0.301
8.724,-0.286
8.725,-0.282
8.726,-0.268
8.727,-0.271
8.728,-0.266
8.729,-0.262
8.73,-0.268
8.731,-0.273
8.732,-0.283
8.733,-0.286
8.734,-0.289
8.735,-0.294
8.736,-0.248
8.737,-0.299
8.738,-0.272
8.739,-0.264
8.74,-0.259
8.741,-0.262
8.742,-0.248
8.743,-0.227
8.744,-0.215
8.745,-0.193
8.746,-0.163
8.747,-0.123
8.748,-0.136
8.749,-0.142
8.75,-0.121
8.751,-0.12
8.752,-0.117
8.753,-0.121
8.754,-0.134
8.755,-0.143
8.756,-0.125
8.757,-0.107
8.758,-0.092
8.759,-0.072
8.76,-0.061
8.761,-0.056
8.762,-0.047
8.763,-0.033
8.764,-0.027
8.765,-0.03
8.766,-0.03
8.767,-0.035
8.768,-0.035
8.769,-0.032
8.77,-0.021
8.771,-0.001
8.772,0.012
8.773,0.006
8.774,0.004
8.775,0.015
8.776,0.027
8.777,0.025
8.778,0.029
8.779,0.031
8.78,0.029
8.781,0.027
8.782,0.032
8.783,0.034
8.784,0.037
8.785,0.036
8.786,0.046
8.787,0.038
8.788,0.024
8.789,0.016
8.79,0.006
8.791,0.005
8.792,0.006
8.793,0.017
8.794,0.027
8.795,0.039
8.796,0.048
8.797,0.048
8.798,0.05
8.799,0.045
8.8,0.045
8.801,0.046
8.802,0.059
8.803,0.066
8.804,0.073
8.805,0.07
8.806,0.076
8.807,0.083
8.808,0.101
8.809,0.116
8.81,0.108
8.811,0.1
8.812,0.106
8.813,0.11
8.814,0.12
8.815,0.129
8.816,0.137
8.817,0.152
8.818,0.172
8.819,0.165
8.82,0.142
8.821,0.126
8.822,0.117
8.823,0.116
8.824,0.111
8.825,0.11
8.826,0.099
8.827,0.103
8.828,0.106
8.829,0.102
8.83,0.105
8.831,0.117
8.832,0.114
8.833,0.107
8.834,0.106
8.835,0.099
8.836,0.103
8.837,0.092
8.838,0.088
8.839,0.1
8.84,0.106
8.841,0.102
8.842,0.095
8.843,0.097
8.844,0.093
8.845,0.076
8.846,0.061
8.847,0.05
8.848,0.06
8.849,0.077
8.85,0.063
8.851,0.074
8.852,0.082
8.853,0.094
8.854,0.102
8.855,0.118
8.856,0.125
8.857,0.149
8.858,0.141
8.859,0.135
8.86,0.131
8.861,0.109
8.862,0.098
8.863,0.089
8.864,0.082
8.865,0.07
8.866,0.07
8.867,0.066
8.868,0.07
8.869,0.072
8.87,0.072
8.871,0.073
8.872,0.088
8.873,0.085
8.874,0.085
8.875,0.08
8.876,0.07
8.877,0.068
8.878,0.067
8.879,0.068
8.88,0.063
8.881,0.058
8.882,0.064
8.883,0.073
8.884,0.068
8.885,0.065
8.886,0.055
8.887,0.046
8.888,0.046
8.889,0.047
8.89,0.052
8.891,0.048
8.892,0.036
8.893,0.031
8.894,0.036
8.895,0.046
8.896,0.054
8.897,0.059
8.898,0.069
8.899,0.07
8.9,0.067
8.901,0.056
8.902,0.057
8.903,0.053
8.904,0.059
8.905,0.052
8.906,0.059
8.907,0.063
8.908,0.069
8.909,0.066
8.91,0.062
8.911,0.06
8.912,0.055
8.913,0.044
8.914,0.043
8.915,0.023
8.916,0.011
8.917,0.006
8.918,0.014
8.919,0.01
8.92,0.029
8.921,0.033
8.922,0.037
8.923,0.031
8.924,0.034
8.925,0.048
8.926,0.037
8.927,0.014
8.928,0.001
8.929,-0.001
8.93,0.002
8.931,0.016
8.932,0.034
8.933,0.026
8.934,0.021
8.935,0.035
8.936,0.044
8.937,0.045
8.938,0.039
8.939,0.031
8.94,0.032
8.941,0.036
8.942,0.04
8.943,0.033
8.944,0.035
8.945,0.032
8.946,0.031
8.947,0.03
8.948,0.03
8.949,0.039
8.95,0.042
8.951,0.032
8.952,0.029
8.953,0.023
8.954,0.016
8.955,0.001
8.956,-0.008
8.957,-0.008
8.958,-0.002
8.959,0.012
8.96,0.018
8.961,0.033
8.962,0.035
8.963,0.033
8.964,0.036
8.965,0.022
8.966,0.019
8.967,0.012
8.968,0.006
8.969,0.009
8.97,0.019
8.971,0.029
8.972,0.035
8.973,0.034
8.974,0.023
8.975,0.008
8.976,0.007
8.977,0.01
8.978,0.006
8.979,0.002
8.98,-0.004
8.981,0.003
8.982,0.007
8.983,0.003
8.984,0.007
8.985,0.018
8.986,0.022
8.987,0.031
8.988,0.065
8.989,0.07
8.99,0.092
8.991,0.112
8.992,0.101
8.993,0.066
8.994,0.056
8.995,0.056
8.996,0.04
8.997,0.051
8.998,0.043
8.999,0.04
9,0.023
9.001,0.009
9.002,-0.001
9.003,-0.024
9.004,-0.033
9.005,-0.036
9.006,-0.031
9.007,-0.009
9.008,0.004
9.009,0.017
9.01,0.017
9.011,0.012
9.012,0.014
9.013,0.024
9.014,0.026
9.015,0.041
9.016,0.059
9.017,0.069
9.018,0.085
9.019,0.105
9.02,0.112
9.021,0.118
9.022,0.129
9.023,0.124
9.024,0.106
9.025,0.091
9.026,0.08
9.027,0.078
9.028,0.069
9.029,0.071
9.03,0.068
9.031,0.06
9.032,0.044
9.033,0.036
9.034,0.019
9.035,-0.002
9.036,-0.015
9.037,-0.034
9.038,-0.045
9.039,-0.066
9.04,-0.072
9.041,-0.07
9.042,-0.077
9.043,-0.064
9.044,-0.062
9.045,-0.058
9.046,-0.052
9.047,-0.052
9.048,-0.036
9.049,-0.038
9.05,-0.036
9.051,-0.04
9.052,-0.051
9.053,-0.039
9.054,-0.047
9.055,-0.052
9.056,-0.059
9.057,-0.069
9.058,-0.067
9.059,-0.073
9.06,-0.082
9.061,-0.086
9.062,-0.088
9.063,-0.089
9.064,-0.079
9.065,-0.08
9.066,-0.093
9.067,-0.088
9.068,-0.082
9.069,-0.079
9.07,-0.062
9.071,-0.033
9.072,-0.038
9.073,-0.074
9.074,-0.097
9.075,-0.119
9.076,-0.116
9.077,-0.099
9.078,-0.088
9.079,-0.091
9.08,-0.092
9.081,-0.104
9.082,-0.101
9.083,-0.088
9.084,-0.073
9.085,-0.071
9.086,-0.071
9.087,-0.068
9.088,-0.054
9.089,-0.023
9.09,-0.017
9.091,-0.022
9.092,-0.035
9.093,-0.04
9.094,-0.032
9.095,-0.037
9.096,-0.045
9.097,-0.04
9.098,-0.031
9.099,0.002
9.1,-0.014
9.101,-0.004
9.102,0.007
9.103,0.012
9.104,0.011
9.105,0.012
9.106,0.01
9.107,-0.004
9.108,-0.014
9.109,-0.019
9.11,-0.014
9.111,-0.018
9.112,-0.021
9.113,-0.025
9.114,-0.033
9.115,-0.028
9.116,-0.015
9.117,-0.019
9.118,-0.022
9.119,-0.022
9.12,-0.026
9.121,-0.034
9.122,-0.01
9.123,-0.015
9.124,-0.01
9.125,0.005
9.126,0.02
9.127,0.03
9.128,0.043
9.129,0.056
9.13,0.057
9.131,0.069
9.132,0.081
9.133,0.094
9.134,0.106
9.135,0.119
9.136,0.137
9.137,0.171
9.138,0.218
9.139,0.288
9.14,0.383
9.141,0.478
9.142,0.548
9.143,0.612
9.144,0.689
9.145,0.754
9.146,0.807
9.147,0.851
9.148,0.886
9.149,0.897
9.15,0.917
9.151,0.933
9.152,0.913
9.153,0.885
9.154,0.794
9.155,0.663
9.156,0.531
9.157,0.378
9.158,0.168
9.159,-0.032
9.16,-0.257
9.161,-0.525
9.162,-0.845
9.163,-1.135
9.164,-1.32
9.165,-1.434
9.166,-1.491
9.167,-1.518
9.168,-1.532
9.169,-1.536
9.17,-1.548
9.171,-1.528
9.172,-1.478
9.173,-1.432
9.174,-1.396
9.175,-1.347
9.176,-1.278
9.177,-1.205
9.178,-1.117
9.179,-1.027
9.18,-0.923
9.181,-0.799
9.182,-0.692
9.183,-0.617
9.184,-0.537
9.185,-0.459
9.186,-0.387
9.187,-0.318
9.188,-0.268
9.189,-0.215
9.19,-0.153
9.191,-0.103
9.192,-0.045
9.193,0.007
9.194,0.061
9.195,0.109
9.196,0.163
9.197,0.217
9.198,0.247
9.199,0.269
9.2,0.269
9.201,0.27
9.202,0.285
9.203,0.307
9.204,0.333
9.205,0.35
9.206,0.37
9.207,0.386
9.208,0.408
9.209,0.421
9.21,0.424
9.211,0.409
9.212,0.412
9.213,0.419
9.214,0.412
9.215,0.41
9.216,0.423
9.217,0.422
9.218,0.43
9.219,0.434
9.22,0.441
9.221,0.448
9.222,0.457
9.223,0.458
9.224,0.448
9.225,0.435
9.226,0.429
9.227,0.411
9.228,0.395
9.229,0.397
9.23,0.38
9.231,0.365
9.232,0.354
9.233,0.35
9.234,0.34
9.235,0.341
9.236,0.325
9.237,0.324
9.238,0.309
9.239,0.302
9.24,0.289
9.241,0.279
9.242,0.27
9.243,0.258
9.244,0.259
9.245,0.261
9.246,0.256
9.247,0.25
9.248,0.245
9.249,0.24
9.25,0.231
9.251,0.233
9.252,0.224
9.253,0.2
9.254,0.185
9.255,0.185
9.256,0.174
9.257,0.155
9.258,0.132
9.259,0.124
9.26,0.116
9.261,0.106
9.262,0.119
9.263,0.148
9.264,0.134
9.265,0.11
9.266,0.097
9.267,0.105
9.268,0.114
9.269,0.106
9.27,0.111
9.271,0.119
9.272,0.112
9.273,0.091
9.274,0.083
9.275,0.084
9.276,0.073
9.277,0.068
9.278,0.068
9.279,0.064
9.28,0.056
9.281,0.06
9.282,0.07
9.283,0.074
9.284,0.066
9.285,0.062
9.286,0.053
9.287,0.045
9.288,0.038
9.289,0.04
9.29,0.051
9.291,0.054
9.292,0.06
9.293,0.047
9.294,0.03
9.295,0.045
9.296,0.061
9.297,0.056
9.298,0.042
9.299,0.021
9.3,0.01
9.301,0.001
9.302,-0.002
9.303,0.007
9.304,0.008
9.305,0.017
9.306,0.025
9.307,0.023
9.308,0.02
9.309,0.013
9.31,0.015
9.311,0.017
9.312,0.019
9.313,0.016
9.314,0.01
9.315,0.008
9.316,0.003
9.317,0
9.318,0.004
9.319,0.007
9.32,-0.005
9.321,-0.015
9.322,-0.014
9.323,-0.017
9.324,-0.016
9.325,-0.017
9.326,-0.014
9.327,-0.013
9.328,-0.014
9.329,-0.02
9.33,-0.035
9.331,-0.049
9.332,-0.045
9.333,-0.036
9.334,-0.028
9.335,-0.016
9.336,-0.009
9.337,-0.014
9.338,-0.013
9.339,-0.004
9.34,-0.007
9.341,-0.013
9.342,-0.01
9.343,-0.013
9.344,-0.017
9.345,-0.017
9.346,-0.009
9.347,-0.009
9.348,0.001
9.349,0.001
9.35,-0.003
9.351,-0.002
9.352,-0.011
9.353,-0.016
9.354,-0.016
9.355,-0.03
9.356,-0.035
9.357,-0.039
9.358,-0.035
9.359,-0.037
9.36,-0.041
9.361,-0.029
9.362,-0.023
9.363,-0.018
9.364,-0.01
9.365,-0.003
9.366,0.022
9.367,0.017
9.368,0.019
9.369,0.036
9.37,0.035
9.371,0.038
9.372,0.028
9.373,0.022
9.374,0.02
9.375,0.011
9.376,-0.006
9.377,-0.003
9.378,0.009
9.379,-0.008
9.38,-0.009
9.381,-0.015
9.382,-0.004
9.383,0.008
9.384,0.015
9.385,0.022
9.386,0.033
9.387,0.028
9.388,0.025
9.389,0.032
9.39,0.023
9.391,0.03
9.392,0.033
9.393,0.029
9.394,0.032
9.395,0.019
9.396,0.007
9.397,-0.003
9.398,-0.006
9.399,-0.015
9.4,-0.017
9.401,-0.027
9.402,-0.041
9.403,-0.05
9.404,-0.057
9.405,-0.055
9.406,-0.05
9.407,-0.056
9.408,-0.061
9.409,-0.077
9.41,-0.083
9.411,-0.088
9.412,-0.09
9.413,-0.094
9.414,-0.097
9.415,-0.097
9.416,-0.113
9.417,-0.123
9.418,-0.129
9.419,-0.137
9.42,-0.143
9.421,-0.145
9.422,-0.155
9.423,-0.156
9.424,-0.141
9.425,-0.149
9.426,-0.162
9.427,-0.174
9.428,-0.18
9.429,-0.185
9.43,-0.184
9.431,-0.183
9.432,-0.194
9.433,-0.196
9.434,-0.202
9.435,-0.218
9.436,-0.223
9.437,-0.225
9.438,-0.243
9.439,-0.25
9.44,-0.256
9.441,-0.265
9.442,-0.267
9.443,-0.277
9.444,-0.275
9.445,-0.272
9.446,-0.283
9.447,-0.285
9.448,-0.27
9.449,-0.27
9.45,-0.272
9.451,-0.268
9.452,-0.271
9.453,-0.282
9.454,-0.289
9.455,-0.28
9.456,-0.276
9.457,-0.283
9.458,-0.289
9.459,-0.311
9.46,-0.329
9.461,-0.334
9.462,-0.306
9.463,-0.292
9.464,-0.29
9.465,-0.265
9.466,-0.26
9.467,-0.259
9.468,-0.252
9.469,-0.246
9.47,-0.251
9.471,-0.249
9.472,-0.245
9.473,-0.234
9.474,-0.219
9.475,-0.211
9.476,-0.199
9.477,-0.192
9.478,-0.202
9.479,-0.193
9.48,-0.183
9.481,-0.177
9.482,-0.169
9.483,-0.16
9.484,-0.144
9.485,-0.123
9.486,-0.111
9.487,-0.109
9.488,-0.129
9.489,-0.132
9.49,-0.127
9.491,-0.12
9.492,-0.114
9.493,-0.109
9.494,-0.114
9.495,-0.119
9.496,-0.118
9.497,-0.125
9.498,-0.128
9.499,-0.111
9.5,-0.098
9.501,-0.093
9.502,-0.092
9.503,-0.091
9.504,-0.099
9.505,-0.098
9.506,-0.085
9.507,-0.068
9.508,-0.055
9.509,-0.049
9.51,-0.043
9.511,-0.039
9.512,-0.033
9.513,-0.033
9.514,-0.016
9.515,-0.003
9.516,0.007
9.517,0.008
9.518,0.016
9.519,0.017
9.52,0.023
9.521,0.036
9.522,0.033
9.523,0.046
9.524,0.048
9.525,0.05
9.526,0.059
9.527,0.057
9.528,0.054
9.529,0.048
9.53,0.048
9.531,0.046
9.532,0.048
9.533,0.045
9.534,0.058
9.535,0.057
9.536,0.05
9.537,0.047
9.538,0.04
9.539,0.027
9.54,0.033
9.541,0.039
9.542,0.037
9.543,0.056
9.544,0.062
9.545,0.062
9.546,0.063
9.547,0.066
9.548,0.085
9.549,0.104
9.55,0.121
9.551,0.13
9.552,0.142
9.553,0.148
9.554,0.148
9.555,0.156
9.556,0.161
9.557,0.16
9.558,0.146
9.559,0.146
9.56,0.14
9.561,0.136
9.562,0.141
9.563,0.135
9.564,0.118
9.565,0.108
9.566,0.11
9.567,0.106
9.568,0.098
9.569,0.092
9.57,0.09
9.571,0.094
9.572,0.09
9.573,0.101
9.574,0.112
9.575,0.117
9.576,0.114
9.577,0.104
9.578,0.095
9.579,0.091
9.58,0.086
9.581,0.085
9.582,0.082
9.583,0.072
9.584,0.077
9.585,0.076
9.586,0.069
9.587,0.077
9.588,0.094
9.589,0.104
9.59,0.112
9.591,0.106
9.592,0.095
9.593,0.093
9.594,0.109
9.595,0.113
9.596,0.114
9.597,0.104
9.598,0.112
9.599,0.114
9.6,0.11
9.601,0.1
9.602,0.091
9.603,0.08
9.604,0.077
9.605,0.076
9.606,0.074
9.607,0.076
9.608,0.073
9.609,0.062
9.61,0.05
9.611,0.04
9.612,0.023
9.613,0.016
9.614,0.017
9.615,0.015
9.616,0.029
9.617,0.053
9.618,0.082
9.619,0.088
9.62,0.095
9.621,0.099
9.622,0.093
9.623,0.088
9.624,0.076
9.625,0.07
9.626,0.069
9.627,0.068
9.628,0.079
9.629,0.084
9.63,0.079
9.631,0.073
9.632,0.074
9.633,0.078
9.634,0.073
9.635,0.048
9.636,0.038
9.637,0.038
9.638,0.033
9.639,0.026
9.64,0.022
9.641,0.025
9.642,0.022
9.643,0.031
9.644,0.039
9.645,0.047
9.646,0.048
9.647,0.034
9.648,0.044
9.649,0.053
9.65,0.041
9.651,0.031
9.652,0.037
9.653,0.034
9.654,0.037
9.655,0.055
9.656,0.059
9.657,0.053
9.658,0.044
9.659,0.032
9.66,0.025
9.661,0.016
9.662,0.021
9.663,0.031
9.664,0.034
9.665,0.033
9.666,0.031
9.667,0.04
9.668,0.032
9.669,0.026
9.67,0.035
9.671,0.037
9.672,0.031
9.673,0.033
9.674,0.027
9.675,0.029
9.676,0.042
9.677,0.035
9.678,0.046
9.679,0.051
9.68,0.053
9.681,0.045
9.682,0.049
9.683,0.043
9.684,0.037
9.685,0.041
9.686,0.03
9.687,0.024
9.688,0.022
9.689,0.02
9.69,0.028
9.691,0.023
9.692,0.016
9.693,0.009
9.694,0.006
9.695,0.001
9.696,-0.012
9.697,-0.018
9.698,-0.019
9.699,-0.017
9.7,-0.014
9.701,-0.022
9.702,-0.017
9.703,-0.018
9.704,-0.006
9.705,0.003
9.706,0.009
9.707,0.021
9.708,0.034
9.709,0.034
9.71,0.025
9.711,0.01
9.712,0.019
9.713,0.014
9.714,0.003
9.715,0.01
9.716,0.033
9.717,0.032
9.718,0.018
9.719,0.025
9.72,0.022
9.721,0.009
9.722,0.002
9.723,0.01
9.724,0.022
9.725,0.008
9.726,0.006
9.727,0.028
9.728,0.032
9.729,0.019
9.73,0.01
9.731,0.004
9.732,-0.005
9.733,-0.009
9.734,-0.015
9.735,-0.017
9.736,-0.006
9.737,-0.006
9.738,0.002
9.739,0.001
9.74,0.005
9.741,0.004
9.742,-0.005
9.743,0.007
9.744,0.02
9.745,0.023
9.746,0.024
9.747,0.019
9.748,0.009
9.749,0
9.75,-0.001
9.751,0
9.752,-0.004
9.753,0.001
9.754,0.006
9.755,0.011
9.756,0.014
9.757,0.023
9.758,0.052
9.759,0.084
9.76,0.081
9.761,0.064
9.762,0.059
9.763,0.064
9.764,0.066
9.765,0.065
9.766,0.063
9.767,0.052
9.768,0.041
9.769,0.033
9.77,0.038
9.771,0.039
9.772,0.026
9.773,0.019
9.774,0.03
9.775,0.039
9.776,0.03
9.777,0.019
9.778,0.019
9.779,0.022
9.78,0.023
9.781,0.021
9.782,0.035
9.783,0.036
9.784,0.022
9.785,0.019
9.786,0.017
9.787,0.02
9.788,0.027
9.789,0.048
9.79,0.046
9.791,0.051
9.792,0.053
9.793,0.053
9.794,0.05
9.795,0.042
9.796,0.042
9.797,0.049
9.798,0.048
9.799,0.06
9.8,0.068
9.801,0.043
9.802,0.019
9.803,0.001
9.804,-0.013
9.805,-0.014
9.806,-0.036
9.807,-0.059
9.808,-0.061
9.809,-0.054
9.81,-0.059
9.811,-0.069
9.812,-0.068
9.813,-0.064
9.814,-0.049
9.815,-0.03
9.816,-0.031
9.817,-0.031
9.818,-0.015
9.819,-0.018
9.82,-0.02
9.821,-0.017
9.822,-0.011
9.823,-0.012
9.824,-0.02
9.825,-0.024
9.826,-0.002
9.827,-0.05
9.828,-0.044
9.829,-0.05
9.83,-0.055
9.831,-0.062
9.832,-0.065
9.833,-0.07
9.834,-0.068
9.835,-0.073
9.836,-0.074
9.837,-0.082
9.838,-0.093
9.839,-0.097
9.84,-0.105
9.841,-0.107
9.842,-0.101
9.843,-0.107
9.844,-0.117
9.845,-0.125
9.846,-0.122
9.847,-0.108
9.848,-0.101
9.849,-0.096
9.85,-0.092
9.851,-0.093
9.852,-0.097
9.853,-0.097
9.854,-0.087
9.855,-0.085
9.856,-0.075
